# OpenSignals Text File Format
# {"20:16:12:22:01:45": {"sensor": ["EDABITREV"], "device name": "20:16:12:22:01:45", "column": ["nSeq", "I1", "I2", "O1", "O2", "A1"], "sync interval": 2, "time": "16:14:39.416", "comments": "", "device connection": "/dev/tty.BITalino-01-45-DevB", "channels": [1], "keywords": "'slender man'", "mode": 0, "digital IO": [0, 0, 1, 1], "firmware version": 1281, "device": "bitalino_rev", "position": 0, "sampling rate": 10, "label": ["A1"], "resolution": [4, 1, 1, 1, 1, 10], "date": "2018-1-18", "special": [{}]}, "20:16:12:21:98:60": {"sensor": ["EDABITREV"], "device name": "20:16:12:21:98:60", "column": ["nSeq", "I1", "I2", "O1", "O2", "A1"], "sync interval": 2, "time": "16:14:39.416", "comments": "", "device connection": "/dev/tty.BITalino-98-60-DevB", "channels": [1], "keywords": "'slender man'", "mode": 0, "digital IO": [0, 0, 1, 1], "firmware version": 1281, "device": "bitalino_rev", "position": 1, "sampling rate": 10, "label": ["A1"], "resolution": [4, 1, 1, 1, 1, 10], "date": "2018-1-18", "special": [{}]}}
# EndOfHeader
2	0	0	0	0	367	0	0	0	0	0	520	
3	0	0	0	0	292	1	0	0	0	0	523	
4	0	0	0	0	352	2	0	0	0	0	486	
5	0	0	0	0	370	3	0	0	0	0	492	
6	0	0	0	0	306	4	0	0	0	0	521	
7	0	0	0	0	297	5	0	0	0	0	498	
8	0	0	0	0	345	6	0	0	0	0	506	
9	0	0	0	0	371	7	0	0	0	0	471	
10	0	0	0	0	371	8	0	0	0	0	512	
11	0	0	0	0	291	9	0	0	0	0	487	
12	0	0	0	0	360	10	0	0	0	0	468	
13	0	0	0	0	368	11	0	0	0	0	527	
14	0	0	0	0	291	12	0	0	0	0	486	
15	0	0	0	0	350	13	0	0	0	0	487	
0	0	0	0	0	307	14	0	0	0	0	522	
1	0	0	0	0	335	15	0	0	0	0	467	
2	0	0	0	0	359	0	0	0	0	0	485	
3	0	0	0	0	361	1	0	0	0	0	514	
4	0	0	0	0	312	2	0	0	0	0	524	
5	0	0	0	0	309	3	0	0	0	0	525	
6	0	0	0	0	385	4	0	0	0	0	513	
7	0	0	0	0	323	5	0	0	0	0	490	
8	0	0	0	0	395	6	0	0	0	0	466	
9	0	0	0	0	337	7	0	0	0	0	514	
10	0	0	0	0	332	8	0	0	0	0	511	
11	0	0	0	0	349	9	0	0	0	0	494	
12	0	0	0	0	406	10	0	0	0	0	520	
13	0	0	0	0	334	11	0	0	0	0	512	
14	0	0	0	0	416	12	0	0	0	0	485	
15	0	0	0	0	340	13	0	0	0	0	517	
0	0	0	0	0	422	14	0	0	0	0	496	
1	0	0	0	0	352	15	0	0	0	0	459	
2	0	0	0	0	415	0	0	0	0	0	487	
3	0	0	0	0	418	1	0	0	0	0	504	
4	0	0	0	0	348	2	0	0	0	0	469	
5	0	0	0	0	346	3	0	0	0	0	508	
6	0	0	0	0	409	4	0	0	0	0	474	
7	0	0	0	0	422	5	0	0	0	0	459	
8	0	0	0	0	421	6	0	0	0	0	516	
9	0	0	0	0	398	7	0	0	0	0	480	
10	0	0	0	0	371	8	0	0	0	0	464	
11	0	0	0	0	420	9	0	0	0	0	476	
12	0	0	0	0	344	10	0	0	0	0	455	
13	0	0	0	0	423	11	0	0	0	0	487	
14	0	0	0	0	426	12	0	0	0	0	456	
15	0	0	0	0	431	13	0	0	0	0	515	
0	0	0	0	0	393	14	0	0	0	0	506	
1	0	0	0	0	379	15	0	0	0	0	488	
2	0	0	0	0	440	0	0	0	0	0	507	
3	0	0	0	0	364	1	0	0	0	0	506	
4	0	0	0	0	366	2	0	0	0	0	481	
5	0	0	0	0	417	3	0	0	0	0	518	
6	0	0	0	0	371	4	0	0	0	0	477	
7	0	0	0	0	453	5	0	0	0	0	510	
8	0	0	0	0	384	6	0	0	0	0	468	
9	0	0	0	0	458	7	0	0	0	0	496	
10	0	0	0	0	394	8	0	0	0	0	511	
11	0	0	0	0	457	9	0	0	0	0	465	
12	0	0	0	0	414	10	0	0	0	0	481	
13	0	0	0	0	384	11	0	0	0	0	485	
14	0	0	0	0	385	12	0	0	0	0	518	
15	0	0	0	0	420	13	0	0	0	0	526	
0	0	0	0	0	387	14	0	0	0	0	470	
1	0	0	0	0	396	15	0	0	0	0	528	
2	0	0	0	0	462	0	0	0	0	0	508	
3	0	0	0	0	389	1	0	0	0	0	486	
4	0	0	0	0	395	2	0	0	0	0	477	
5	0	0	0	0	468	3	0	0	0	0	529	
6	0	0	0	0	428	4	0	0	0	0	487	
7	0	0	0	0	454	5	0	0	0	0	510	
8	0	0	0	0	391	6	0	0	0	0	517	
9	0	0	0	0	391	7	0	0	0	0	473	
10	0	0	0	0	457	8	0	0	0	0	518	
11	0	0	0	0	469	9	0	0	0	0	527	
12	0	0	0	0	389	10	0	0	0	0	480	
13	0	0	0	0	395	11	0	0	0	0	485	
14	0	0	0	0	428	12	0	0	0	0	510	
15	0	0	0	0	466	13	0	0	0	0	527	
0	0	0	0	0	465	14	0	0	0	0	512	
1	0	0	0	0	444	15	0	0	0	0	488	
2	0	0	0	0	463	0	0	0	0	0	506	
3	0	0	0	0	462	1	0	0	0	0	492	
4	0	0	0	0	398	2	0	0	0	0	512	
5	0	0	0	0	460	3	0	0	0	0	467	
6	0	0	0	0	458	4	0	0	0	0	483	
7	0	0	0	0	398	5	0	0	0	0	510	
8	0	0	0	0	457	6	0	0	0	0	524	
9	0	0	0	0	424	7	0	0	0	0	497	
10	0	0	0	0	454	8	0	0	0	0	509	
11	0	0	0	0	454	9	0	0	0	0	504	
12	0	0	0	0	409	10	0	0	0	0	490	
13	0	0	0	0	372	11	0	0	0	0	494	
14	0	0	0	0	424	12	0	0	0	0	503	
15	0	0	0	0	449	13	0	0	0	0	487	
0	0	0	0	0	381	14	0	0	0	0	475	
1	0	0	0	0	448	15	0	0	0	0	482	
2	0	0	0	0	375	0	0	0	0	0	514	
3	0	0	0	0	381	1	0	0	0	0	510	
4	0	0	0	0	448	2	0	0	0	0	483	
5	0	0	0	0	391	3	0	0	0	0	509	
6	0	0	0	0	366	4	0	0	0	0	487	
7	0	0	0	0	440	5	0	0	0	0	504	
8	0	0	0	0	444	6	0	0	0	0	504	
9	0	0	0	0	365	7	0	0	0	0	523	
10	0	0	0	0	366	8	0	0	0	0	511	
11	0	0	0	0	444	9	0	0	0	0	462	
12	0	0	0	0	445	10	0	0	0	0	485	
13	0	0	0	0	445	11	0	0	0	0	503	
14	0	0	0	0	454	12	0	0	0	0	522	
15	0	0	0	0	428	13	0	0	0	0	462	
0	0	0	0	0	404	14	0	0	0	0	521	
1	0	0	0	0	428	15	0	0	0	0	482	
2	0	0	0	0	482	0	0	0	0	0	523	
3	0	0	0	0	409	1	0	0	0	0	522	
4	0	0	0	0	440	2	0	0	0	0	503	
5	0	0	0	0	495	3	0	0	0	0	508	
6	0	0	0	0	419	4	0	0	0	0	513	
7	0	0	0	0	500	5	0	0	0	0	477	
8	0	0	0	0	452	6	0	0	0	0	482	
9	0	0	0	0	497	7	0	0	0	0	514	
10	0	0	0	0	496	8	0	0	0	0	511	
11	0	0	0	0	496	9	0	0	0	0	524	
12	0	0	0	0	482	10	0	0	0	0	494	
13	0	0	0	0	431	11	0	0	0	0	524	
14	0	0	0	0	487	12	0	0	0	0	483	
15	0	0	0	0	463	13	0	0	0	0	485	
0	0	0	0	0	472	14	0	0	0	0	487	
1	0	0	0	0	480	15	0	0	0	0	526	
2	0	0	0	0	479	0	0	0	0	0	517	
3	0	0	0	0	476	1	0	0	0	0	515	
4	0	0	0	0	475	2	0	0	0	0	520	
5	0	0	0	0	396	3	0	0	0	0	488	
6	0	0	0	0	394	4	0	0	0	0	514	
7	0	0	0	0	401	5	0	0	0	0	476	
8	0	0	0	0	401	6	0	0	0	0	508	
9	0	0	0	0	408	7	0	0	0	0	484	
10	0	0	0	0	473	8	0	0	0	0	483	
11	0	0	0	0	459	9	0	0	0	0	507	
12	0	0	0	0	479	10	0	0	0	0	504	
13	0	0	0	0	472	11	0	0	0	0	504	
14	0	0	0	0	466	12	0	0	0	0	526	
15	0	0	0	0	407	13	0	0	0	0	513	
0	0	0	0	0	411	14	0	0	0	0	484	
1	0	0	0	0	486	15	0	0	0	0	493	
2	0	0	0	0	492	0	0	0	0	0	523	
3	0	0	0	0	416	1	0	0	0	0	487	
4	0	0	0	0	489	2	0	0	0	0	464	
5	0	0	0	0	493	3	0	0	0	0	508	
6	0	0	0	0	488	4	0	0	0	0	463	
7	0	0	0	0	496	5	0	0	0	0	481	
8	0	0	0	0	492	6	0	0	0	0	481	
9	0	0	0	0	501	7	0	0	0	0	521	
10	0	0	0	0	428	8	0	0	0	0	463	
11	0	0	0	0	511	9	0	0	0	0	481	
12	0	0	0	0	467	10	0	0	0	0	461	
13	0	0	0	0	520	11	0	0	0	0	479	
14	0	0	0	0	444	12	0	0	0	0	512	
15	0	0	0	0	524	13	0	0	0	0	480	
0	0	0	0	0	520	14	0	0	0	0	463	
1	0	0	0	0	529	15	0	0	0	0	522	
2	0	0	0	0	531	0	0	0	0	0	490	
3	0	0	0	0	515	1	0	0	0	0	524	
4	0	0	0	0	502	2	0	0	0	0	484	
5	0	0	0	0	451	3	0	0	0	0	485	
6	0	0	0	0	466	4	0	0	0	0	516	
7	0	0	0	0	526	5	0	0	0	0	526	
8	0	0	0	0	525	6	0	0	0	0	511	
9	0	0	0	0	497	7	0	0	0	0	508	
10	0	0	0	0	502	8	0	0	0	0	505	
11	0	0	0	0	518	9	0	0	0	0	526	
12	0	0	0	0	437	10	0	0	0	0	491	
13	0	0	0	0	507	11	0	0	0	0	515	
14	0	0	0	0	512	12	0	0	0	0	524	
15	0	0	0	0	440	13	0	0	0	0	501	
0	0	0	0	0	507	14	0	0	0	0	501	
1	0	0	0	0	439	15	0	0	0	0	484	
2	0	0	0	0	487	0	0	0	0	0	470	
3	0	0	0	0	486	1	0	0	0	0	484	
4	0	0	0	0	437	2	0	0	0	0	508	
5	0	0	0	0	423	3	0	0	0	0	515	
6	0	0	0	0	456	4	0	0	0	0	495	
7	0	0	0	0	500	5	0	0	0	0	465	
8	0	0	0	0	499	6	0	0	0	0	514	
9	0	0	0	0	499	7	0	0	0	0	494	
10	0	0	0	0	419	8	0	0	0	0	492	
11	0	0	0	0	499	9	0	0	0	0	522	
12	0	0	0	0	495	10	0	0	0	0	481	
13	0	0	0	0	452	11	0	0	0	0	508	
14	0	0	0	0	441	12	0	0	0	0	520	
15	0	0	0	0	480	13	0	0	0	0	497	
0	0	0	0	0	425	14	0	0	0	0	510	
1	0	0	0	0	501	15	0	0	0	0	509	
2	0	0	0	0	500	0	0	0	0	0	524	
3	0	0	0	0	500	1	0	0	0	0	502	
4	0	0	0	0	498	2	0	0	0	0	512	
5	0	0	0	0	423	3	0	0	0	0	463	
6	0	0	0	0	494	4	0	0	0	0	480	
7	0	0	0	0	505	5	0	0	0	0	511	
8	0	0	0	0	452	6	0	0	0	0	483	
9	0	0	0	0	435	7	0	0	0	0	511	
10	0	0	0	0	429	8	0	0	0	0	462	
11	0	0	0	0	423	9	0	0	0	0	512	
12	0	0	0	0	472	10	0	0	0	0	500	
13	0	0	0	0	416	11	0	0	0	0	483	
14	0	0	0	0	442	12	0	0	0	0	512	
15	0	0	0	0	415	13	0	0	0	0	510	
0	0	0	0	0	461	14	0	0	0	0	462	
1	0	0	0	0	448	15	0	0	0	0	521	
2	0	0	0	0	448	0	0	0	0	0	464	
3	0	0	0	0	440	1	0	0	0	0	508	
4	0	0	0	0	496	2	0	0	0	0	507	
5	0	0	0	0	493	3	0	0	0	0	486	
6	0	0	0	0	489	4	0	0	0	0	460	
7	0	0	0	0	490	5	0	0	0	0	519	
8	0	0	0	0	488	6	0	0	0	0	519	
9	0	0	0	0	484	7	0	0	0	0	518	
10	0	0	0	0	485	8	0	0	0	0	476	
11	0	0	0	0	408	9	0	0	0	0	472	
12	0	0	0	0	408	10	0	0	0	0	512	
13	0	0	0	0	407	11	0	0	0	0	502	
14	0	0	0	0	449	12	0	0	0	0	467	
15	0	0	0	0	415	13	0	0	0	0	518	
0	0	0	0	0	424	14	0	0	0	0	506	
1	0	0	0	0	415	15	0	0	0	0	476	
2	0	0	0	0	420	0	0	0	0	0	508	
3	0	0	0	0	469	1	0	0	0	0	476	
4	0	0	0	0	483	2	0	0	0	0	508	
5	0	0	0	0	405	3	0	0	0	0	480	
6	0	0	0	0	449	4	0	0	0	0	514	
7	0	0	0	0	481	5	0	0	0	0	459	
8	0	0	0	0	414	6	0	0	0	0	485	
9	0	0	0	0	479	7	0	0	0	0	473	
10	0	0	0	0	478	8	0	0	0	0	457	
11	0	0	0	0	472	9	0	0	0	0	482	
12	0	0	0	0	448	10	0	0	0	0	504	
13	0	0	0	0	397	11	0	0	0	0	504	
14	0	0	0	0	397	12	0	0	0	0	465	
15	0	0	0	0	465	13	0	0	0	0	509	
0	0	0	0	0	443	14	0	0	0	0	482	
1	0	0	0	0	394	15	0	0	0	0	454	
2	0	0	0	0	392	0	0	0	0	0	486	
3	0	0	0	0	393	1	0	0	0	0	502	
4	0	0	0	0	469	2	0	0	0	0	510	
5	0	0	0	0	395	3	0	0	0	0	476	
6	0	0	0	0	452	4	0	0	0	0	480	
7	0	0	0	0	465	5	0	0	0	0	488	
8	0	0	0	0	390	6	0	0	0	0	491	
9	0	0	0	0	463	7	0	0	0	0	453	
10	0	0	0	0	462	8	0	0	0	0	471	
11	0	0	0	0	460	9	0	0	0	0	503	
12	0	0	0	0	430	10	0	0	0	0	470	
13	0	0	0	0	453	11	0	0	0	0	462	
14	0	0	0	0	465	12	0	0	0	0	506	
15	0	0	0	0	404	13	0	0	0	0	451	
0	0	0	0	0	464	14	0	0	0	0	470	
1	0	0	0	0	463	15	0	0	0	0	453	
2	0	0	0	0	412	0	0	0	0	0	477	
3	0	0	0	0	445	1	0	0	0	0	451	
4	0	0	0	0	392	2	0	0	0	0	500	
5	0	0	0	0	385	3	0	0	0	0	510	
6	0	0	0	0	459	4	0	0	0	0	458	
7	0	0	0	0	458	5	0	0	0	0	493	
8	0	0	0	0	433	6	0	0	0	0	468	
9	0	0	0	0	452	7	0	0	0	0	469	
10	0	0	0	0	453	8	0	0	0	0	451	
11	0	0	0	0	375	9	0	0	0	0	495	
12	0	0	0	0	392	10	0	0	0	0	496	
13	0	0	0	0	389	11	0	0	0	0	506	
14	0	0	0	0	374	12	0	0	0	0	497	
15	0	0	0	0	449	13	0	0	0	0	496	
0	0	0	0	0	390	14	0	0	0	0	507	
1	0	0	0	0	405	15	0	0	0	0	496	
2	0	0	0	0	413	0	0	0	0	0	498	
3	0	0	0	0	441	1	0	0	0	0	477	
4	0	0	0	0	421	2	0	0	0	0	479	
5	0	0	0	0	441	3	0	0	0	0	505	
6	0	0	0	0	384	4	0	0	0	0	448	
7	0	0	0	0	398	5	0	0	0	0	444	
8	0	0	0	0	369	6	0	0	0	0	495	
9	0	0	0	0	409	7	0	0	0	0	483	
10	0	0	0	0	371	8	0	0	0	0	461	
11	0	0	0	0	385	9	0	0	0	0	493	
12	0	0	0	0	443	10	0	0	0	0	445	
13	0	0	0	0	443	11	0	0	0	0	460	
14	0	0	0	0	439	12	0	0	0	0	490	
15	0	0	0	0	430	13	0	0	0	0	499	
0	0	0	0	0	440	14	0	0	0	0	492	
1	0	0	0	0	364	15	0	0	0	0	443	
2	0	0	0	0	443	0	0	0	0	0	459	
3	0	0	0	0	742	1	0	0	0	0	490	
4	0	0	0	0	1020	2	0	0	0	0	478	
5	0	0	0	0	1019	3	0	0	0	0	481	
6	0	0	0	0	1020	4	0	0	0	0	458	
7	0	0	0	0	1020	5	0	0	0	0	484	
8	0	0	0	0	1021	6	0	0	0	0	439	
9	0	0	0	0	1020	7	0	0	0	0	442	
10	0	0	0	0	1020	8	0	0	0	0	485	
11	0	0	0	0	1020	9	0	0	0	0	477	
12	0	0	0	0	1021	10	0	0	0	0	482	
13	0	0	0	0	1019	11	0	0	0	0	496	
14	0	0	0	0	1020	12	0	0	0	0	486	
15	0	0	0	0	1020	13	0	0	0	0	437	
0	0	0	0	0	1019	14	0	0	0	0	496	
1	0	0	0	0	1020	15	0	0	0	0	479	
2	0	0	0	0	1021	0	0	0	0	0	481	
3	0	0	0	0	1020	1	0	0	0	0	485	
4	0	0	0	0	1018	2	0	0	0	0	436	
5	0	0	0	0	1020	3	0	0	0	0	473	
6	0	0	0	0	1020	4	0	0	0	0	434	
7	0	0	0	0	1020	5	0	0	0	0	462	
8	0	0	0	0	1020	6	0	0	0	0	467	
9	0	0	0	0	1021	7	0	0	0	0	480	
10	0	0	0	0	1020	8	0	0	0	0	492	
11	0	0	0	0	1018	9	0	0	0	0	481	
12	0	0	0	0	1019	10	0	0	0	0	475	
13	0	0	0	0	1019	11	0	0	0	0	462	
14	0	0	0	0	1020	12	0	0	0	0	431	
15	0	0	0	0	1020	13	0	0	0	0	488	
0	0	0	0	0	1018	14	0	0	0	0	458	
1	0	0	0	0	1021	15	0	0	0	0	476	
2	0	0	0	0	1019	0	0	0	0	0	430	
3	0	0	0	0	1021	1	0	0	0	0	483	
4	0	0	0	0	1020	2	0	0	0	0	489	
5	0	0	0	0	1018	3	0	0	0	0	476	
6	0	0	0	0	1021	4	0	0	0	0	488	
7	0	0	0	0	1021	5	0	0	0	0	433	
8	0	0	0	0	1020	6	0	0	0	0	450	
9	0	0	0	0	1018	7	0	0	0	0	459	
10	0	0	0	0	1020	8	0	0	0	0	429	
11	0	0	0	0	1019	9	0	0	0	0	461	
12	0	0	0	0	1020	10	0	0	0	0	445	
13	0	0	0	0	1019	11	0	0	0	0	475	
14	0	0	0	0	1019	12	0	0	0	0	467	
15	0	0	0	0	1020	13	0	0	0	0	466	
0	0	0	0	0	1021	14	0	0	0	0	484	
1	0	0	0	0	1021	15	0	0	0	0	448	
2	0	0	0	0	645	0	0	0	0	0	436	
3	0	0	0	0	467	1	0	0	0	0	484	
4	0	0	0	0	379	2	0	0	0	0	469	
5	0	0	0	0	350	3	0	0	0	0	472	
6	0	0	0	0	348	4	0	0	0	0	482	
7	0	0	0	0	423	5	0	0	0	0	464	
8	0	0	0	0	399	6	0	0	0	0	478	
9	0	0	0	0	419	7	0	0	0	0	454	
10	0	0	0	0	412	8	0	0	0	0	420	
11	0	0	0	0	417	9	0	0	0	0	480	
12	0	0	0	0	385	10	0	0	0	0	460	
13	0	0	0	0	339	11	0	0	0	0	479	
14	0	0	0	0	363	12	0	0	0	0	437	
15	0	0	0	0	401	13	0	0	0	0	422	
0	0	0	0	0	411	14	0	0	0	0	479	
1	0	0	0	0	410	15	0	0	0	0	439	
2	0	0	0	0	332	0	0	0	0	0	465	
3	0	0	0	0	411	1	0	0	0	0	417	
4	0	0	0	0	331	2	0	0	0	0	476	
5	0	0	0	0	409	3	0	0	0	0	448	
6	0	0	0	0	329	4	0	0	0	0	464	
7	0	0	0	0	401	5	0	0	0	0	435	
8	0	0	0	0	406	6	0	0	0	0	462	
9	0	0	0	0	371	7	0	0	0	0	432	
10	0	0	0	0	359	8	0	0	0	0	461	
11	0	0	0	0	402	9	0	0	0	0	460	
12	0	0	0	0	337	10	0	0	0	0	473	
13	0	0	0	0	324	11	0	0	0	0	463	
14	0	0	0	0	400	12	0	0	0	0	473	
15	0	0	0	0	378	13	0	0	0	0	413	
0	0	0	0	0	322	14	0	0	0	0	472	
1	0	0	0	0	401	15	0	0	0	0	429	
2	0	0	0	0	400	0	0	0	0	0	416	
3	0	0	0	0	397	1	0	0	0	0	429	
4	0	0	0	0	384	2	0	0	0	0	460	
5	0	0	0	0	383	3	0	0	0	0	409	
6	0	0	0	0	319	4	0	0	0	0	448	
7	0	0	0	0	318	5	0	0	0	0	446	
8	0	0	0	0	344	6	0	0	0	0	434	
9	0	0	0	0	389	7	0	0	0	0	453	
10	0	0	0	0	316	8	0	0	0	0	417	
11	0	0	0	0	341	9	0	0	0	0	425	
12	0	0	0	0	343	10	0	0	0	0	409	
13	0	0	0	0	333	11	0	0	0	0	424	
14	0	0	0	0	311	12	0	0	0	0	408	
15	0	0	0	0	312	13	0	0	0	0	465	
0	0	0	0	0	313	14	0	0	0	0	406	
1	0	0	0	0	327	15	0	0	0	0	423	
2	0	0	0	0	355	0	0	0	0	0	421	
3	0	0	0	0	311	1	0	0	0	0	454	
4	0	0	0	0	312	2	0	0	0	0	449	
5	0	0	0	0	376	3	0	0	0	0	403	
6	0	0	0	0	319	4	0	0	0	0	460	
7	0	0	0	0	314	5	0	0	0	0	420	
8	0	0	0	0	311	6	0	0	0	0	460	
9	0	0	0	0	328	7	0	0	0	0	426	
10	0	0	0	0	387	8	0	0	0	0	446	
11	0	0	0	0	313	9	0	0	0	0	419	
12	0	0	0	0	331	10	0	0	0	0	452	
13	0	0	0	0	379	11	0	0	0	0	426	
14	0	0	0	0	344	12	0	0	0	0	454	
15	0	0	0	0	388	13	0	0	0	0	441	
0	0	0	0	0	351	14	0	0	0	0	452	
1	0	0	0	0	329	15	0	0	0	0	449	
2	0	0	0	0	335	0	0	0	0	0	457	
3	0	0	0	0	315	1	0	0	0	0	448	
4	0	0	0	0	314	2	0	0	0	0	403	
5	0	0	0	0	391	3	0	0	0	0	398	
6	0	0	0	0	313	4	0	0	0	0	455	
7	0	0	0	0	349	5	0	0	0	0	426	
8	0	0	0	0	391	6	0	0	0	0	452	
9	0	0	0	0	381	7	0	0	0	0	414	
10	0	0	0	0	382	8	0	0	0	0	429	
11	0	0	0	0	314	9	0	0	0	0	403	
12	0	0	0	0	305	10	0	0	0	0	456	
13	0	0	0	0	299	11	0	0	0	0	444	
14	0	0	0	0	370	12	0	0	0	0	454	
15	0	0	0	0	300	13	0	0	0	0	454	
0	0	0	0	0	302	14	0	0	0	0	445	
1	0	0	0	0	343	15	0	0	0	0	431	
2	0	0	0	0	380	0	0	0	0	0	455	
3	0	0	0	0	375	1	0	0	0	0	398	
4	0	0	0	0	380	2	0	0	0	0	423	
5	0	0	0	0	329	3	0	0	0	0	400	
6	0	0	0	0	300	4	0	0	0	0	442	
7	0	0	0	0	379	5	0	0	0	0	440	
8	0	0	0	0	368	6	0	0	0	0	456	
9	0	0	0	0	378	7	0	0	0	0	441	
10	0	0	0	0	378	8	0	0	0	0	449	
11	0	0	0	0	349	9	0	0	0	0	405	
12	0	0	0	0	360	10	0	0	0	0	438	
13	0	0	0	0	377	11	0	0	0	0	417	
14	0	0	0	0	317	12	0	0	0	0	399	
15	0	0	0	0	365	13	0	0	0	0	460	
0	0	0	0	0	373	14	0	0	0	0	446	
1	0	0	0	0	374	15	0	0	0	0	461	
2	0	0	0	0	296	0	0	0	0	0	449	
3	0	0	0	0	298	1	0	0	0	0	459	
4	0	0	0	0	339	2	0	0	0	0	471	
5	0	0	0	0	359	3	0	0	0	0	469	
6	0	0	0	0	348	4	0	0	0	0	462	
7	0	0	0	0	333	5	0	0	0	0	449	
8	0	0	0	0	315	6	0	0	0	0	439	
9	0	0	0	0	320	7	0	0	0	0	497	
10	0	0	0	0	369	8	0	0	0	0	457	
11	0	0	0	0	291	9	0	0	0	0	482	
12	0	0	0	0	294	10	0	0	0	0	474	
13	0	0	0	0	327	11	0	0	0	0	492	
14	0	0	0	0	296	12	0	0	0	0	472	
15	0	0	0	0	375	13	0	0	0	0	452	
0	0	0	0	0	302	14	0	0	0	0	491	
1	0	0	0	0	308	15	0	0	0	0	489	
2	0	0	0	0	329	0	0	0	0	0	462	
3	0	0	0	0	381	1	0	0	0	0	483	
4	0	0	0	0	312	2	0	0	0	0	514	
5	0	0	0	0	388	3	0	0	0	0	520	
6	0	0	0	0	382	4	0	0	0	0	518	
7	0	0	0	0	380	5	0	0	0	0	521	
8	0	0	0	0	387	6	0	0	0	0	514	
9	0	0	0	0	315	7	0	0	0	0	497	
10	0	0	0	0	334	8	0	0	0	0	504	
11	0	0	0	0	371	9	0	0	0	0	522	
12	0	0	0	0	392	10	0	0	0	0	488	
13	0	0	0	0	390	11	0	0	0	0	489	
14	0	0	0	0	369	12	0	0	0	0	511	
15	0	0	0	0	399	13	0	0	0	0	548	
0	0	0	0	0	348	14	0	0	0	0	561	
1	0	0	0	0	409	15	0	0	0	0	552	
2	0	0	0	0	341	0	0	0	0	0	561	
3	0	0	0	0	366	1	0	0	0	0	519	
4	0	0	0	0	359	2	0	0	0	0	515	
5	0	0	0	0	426	3	0	0	0	0	504	
6	0	0	0	0	374	4	0	0	0	0	529	
7	0	0	0	0	403	5	0	0	0	0	551	
8	0	0	0	0	431	6	0	0	0	0	544	
9	0	0	0	0	439	7	0	0	0	0	519	
10	0	0	0	0	364	8	0	0	0	0	498	
11	0	0	0	0	448	9	0	0	0	0	515	
12	0	0	0	0	378	10	0	0	0	0	551	
13	0	0	0	0	459	11	0	0	0	0	520	
14	0	0	0	0	471	12	0	0	0	0	551	
15	0	0	0	0	443	13	0	0	0	0	563	
0	0	0	0	0	491	14	0	0	0	0	541	
1	0	0	0	0	502	15	0	0	0	0	534	
2	0	0	0	0	512	0	0	0	0	0	534	
3	0	0	0	0	493	1	0	0	0	0	548	
4	0	0	0	0	455	2	0	0	0	0	557	
5	0	0	0	0	505	3	0	0	0	0	572	
6	0	0	0	0	546	4	0	0	0	0	546	
7	0	0	0	0	488	5	0	0	0	0	555	
8	0	0	0	0	572	6	0	0	0	0	560	
9	0	0	0	0	563	7	0	0	0	0	527	
10	0	0	0	0	549	8	0	0	0	0	535	
11	0	0	0	0	591	9	0	0	0	0	553	
12	0	0	0	0	535	10	0	0	0	0	574	
13	0	0	0	0	602	11	0	0	0	0	579	
14	0	0	0	0	558	12	0	0	0	0	569	
15	0	0	0	0	644	13	0	0	0	0	581	
0	0	0	0	0	642	14	0	0	0	0	577	
1	0	0	0	0	649	15	0	0	0	0	527	
2	0	0	0	0	675	0	0	0	0	0	563	
3	0	0	0	0	625	1	0	0	0	0	554	
4	0	0	0	0	688	2	0	0	0	0	591	
5	0	0	0	0	672	3	0	0	0	0	579	
6	0	0	0	0	699	4	0	0	0	0	590	
7	0	0	0	0	679	5	0	0	0	0	549	
8	0	0	0	0	669	6	0	0	0	0	581	
9	0	0	0	0	694	7	0	0	0	0	582	
10	0	0	0	0	621	8	0	0	0	0	577	
11	0	0	0	0	615	9	0	0	0	0	556	
12	0	0	0	0	670	10	0	0	0	0	562	
13	0	0	0	0	688	11	0	0	0	0	591	
14	0	0	0	0	660	12	0	0	0	0	562	
15	0	0	0	0	609	13	0	0	0	0	531	
0	0	0	0	0	679	14	0	0	0	0	582	
1	0	0	0	0	673	15	0	0	0	0	549	
2	0	0	0	0	674	0	0	0	0	0	529	
3	0	0	0	0	603	1	0	0	0	0	549	
4	0	0	0	0	612	2	0	0	0	0	531	
5	0	0	0	0	685	3	0	0	0	0	577	
6	0	0	0	0	677	4	0	0	0	0	567	
7	0	0	0	0	665	5	0	0	0	0	540	
8	0	0	0	0	584	6	0	0	0	0	573	
9	0	0	0	0	612	7	0	0	0	0	580	
10	0	0	0	0	671	8	0	0	0	0	535	
11	0	0	0	0	612	9	0	0	0	0	573	
12	0	0	0	0	612	10	0	0	0	0	590	
13	0	0	0	0	685	11	0	0	0	0	580	
14	0	0	0	0	633	12	0	0	0	0	543	
15	0	0	0	0	706	13	0	0	0	0	591	
0	0	0	0	0	674	14	0	0	0	0	590	
1	0	0	0	0	716	15	0	0	0	0	590	
2	0	0	0	0	692	0	0	0	0	0	579	
3	0	0	0	0	713	1	0	0	0	0	580	
4	0	0	0	0	705	2	0	0	0	0	535	
5	0	0	0	0	671	3	0	0	0	0	563	
6	0	0	0	0	628	4	0	0	0	0	531	
7	0	0	0	0	683	5	0	0	0	0	589	
8	0	0	0	0	645	6	0	0	0	0	588	
9	0	0	0	0	655	7	0	0	0	0	581	
10	0	0	0	0	635	8	0	0	0	0	540	
11	0	0	0	0	611	9	0	0	0	0	556	
12	0	0	0	0	611	10	0	0	0	0	580	
13	0	0	0	0	689	11	0	0	0	0	528	
14	0	0	0	0	672	12	0	0	0	0	562	
15	0	0	0	0	678	13	0	0	0	0	580	
0	0	0	0	0	646	14	0	0	0	0	578	
1	0	0	0	0	607	15	0	0	0	0	590	
2	0	0	0	0	626	0	0	0	0	0	571	
3	0	0	0	0	673	1	0	0	0	0	530	
4	0	0	0	0	668	2	0	0	0	0	531	
5	0	0	0	0	667	3	0	0	0	0	533	
6	0	0	0	0	630	4	0	0	0	0	592	
7	0	0	0	0	587	5	0	0	0	0	555	
8	0	0	0	0	662	6	0	0	0	0	566	
9	0	0	0	0	576	7	0	0	0	0	535	
10	0	0	0	0	575	8	0	0	0	0	528	
11	0	0	0	0	654	9	0	0	0	0	579	
12	0	0	0	0	618	10	0	0	0	0	561	
13	0	0	0	0	656	11	0	0	0	0	583	
14	0	0	0	0	619	12	0	0	0	0	585	
15	0	0	0	0	582	13	0	0	0	0	565	
0	0	0	0	0	607	14	0	0	0	0	591	
1	0	0	0	0	660	15	0	0	0	0	563	
2	0	0	0	0	585	0	0	0	0	0	567	
3	0	0	0	0	648	1	0	0	0	0	584	
4	0	0	0	0	662	2	0	0	0	0	535	
5	0	0	0	0	647	3	0	0	0	0	578	
6	0	0	0	0	639	4	0	0	0	0	597	
7	0	0	0	0	656	5	0	0	0	0	587	
8	0	0	0	0	650	6	0	0	0	0	538	
9	0	0	0	0	646	7	0	0	0	0	557	
10	0	0	0	0	575	8	0	0	0	0	549	
11	0	0	0	0	611	9	0	0	0	0	600	
12	0	0	0	0	578	10	0	0	0	0	558	
13	0	0	0	0	639	11	0	0	0	0	544	
14	0	0	0	0	642	12	0	0	0	0	597	
15	0	0	0	0	624	13	0	0	0	0	588	
0	0	0	0	0	558	14	0	0	0	0	560	
1	0	0	0	0	627	15	0	0	0	0	562	
2	0	0	0	0	632	0	0	0	0	0	582	
3	0	0	0	0	556	1	0	0	0	0	578	
4	0	0	0	0	568	2	0	0	0	0	596	
5	0	0	0	0	569	3	0	0	0	0	589	
6	0	0	0	0	579	4	0	0	0	0	541	
7	0	0	0	0	652	5	0	0	0	0	599	
8	0	0	0	0	622	6	0	0	0	0	537	
9	0	0	0	0	645	7	0	0	0	0	582	
10	0	0	0	0	641	8	0	0	0	0	587	
11	0	0	0	0	588	9	0	0	0	0	539	
12	0	0	0	0	612	10	0	0	0	0	599	
13	0	0	0	0	632	11	0	0	0	0	576	
14	0	0	0	0	623	12	0	0	0	0	545	
15	0	0	0	0	550	13	0	0	0	0	559	
0	0	0	0	0	625	14	0	0	0	0	586	
1	0	0	0	0	622	15	0	0	0	0	568	
2	0	0	0	0	543	0	0	0	0	0	591	
3	0	0	0	0	620	1	0	0	0	0	600	
4	0	0	0	0	595	2	0	0	0	0	553	
5	0	0	0	0	552	3	0	0	0	0	615	
6	0	0	0	0	537	4	0	0	0	0	575	
7	0	0	0	0	607	5	0	0	0	0	608	
8	0	0	0	0	598	6	0	0	0	0	589	
9	0	0	0	0	563	7	0	0	0	0	620	
10	0	0	0	0	568	8	0	0	0	0	561	
11	0	0	0	0	580	9	0	0	0	0	616	
12	0	0	0	0	585	10	0	0	0	0	583	
13	0	0	0	0	594	11	0	0	0	0	596	
14	0	0	0	0	600	12	0	0	0	0	608	
15	0	0	0	0	597	13	0	0	0	0	577	
0	0	0	0	0	546	14	0	0	0	0	596	
1	0	0	0	0	552	15	0	0	0	0	607	
2	0	0	0	0	543	0	0	0	0	0	556	
3	0	0	0	0	594	1	0	0	0	0	612	
4	0	0	0	0	516	2	0	0	0	0	574	
5	0	0	0	0	593	3	0	0	0	0	598	
6	0	0	0	0	590	4	0	0	0	0	599	
7	0	0	0	0	529	5	0	0	0	0	556	
8	0	0	0	0	611	6	0	0	0	0	614	
9	0	0	0	0	553	7	0	0	0	0	571	
10	0	0	0	0	615	8	0	0	0	0	572	
11	0	0	0	0	616	9	0	0	0	0	555	
12	0	0	0	0	575	10	0	0	0	0	588	
13	0	0	0	0	535	11	0	0	0	0	603	
14	0	0	0	0	565	12	0	0	0	0	601	
15	0	0	0	0	555	13	0	0	0	0	598	
0	0	0	0	0	535	14	0	0	0	0	554	
1	0	0	0	0	594	15	0	0	0	0	599	
2	0	0	0	0	608	0	0	0	0	0	609	
3	0	0	0	0	598	1	0	0	0	0	599	
4	0	0	0	0	604	2	0	0	0	0	600	
5	0	0	0	0	577	3	0	0	0	0	550	
6	0	0	0	0	603	4	0	0	0	0	603	
7	0	0	0	0	575	5	0	0	0	0	552	
8	0	0	0	0	599	6	0	0	0	0	572	
9	0	0	0	0	528	7	0	0	0	0	603	
10	0	0	0	0	578	8	0	0	0	0	599	
11	0	0	0	0	597	9	0	0	0	0	551	
12	0	0	0	0	551	10	0	0	0	0	609	
13	0	0	0	0	517	11	0	0	0	0	567	
14	0	0	0	0	513	12	0	0	0	0	600	
15	0	0	0	0	558	13	0	0	0	0	599	
0	0	0	0	0	591	14	0	0	0	0	548	
1	0	0	0	0	510	15	0	0	0	0	566	
2	0	0	0	0	557	0	0	0	0	0	598	
3	0	0	0	0	578	1	0	0	0	0	573	
4	0	0	0	0	509	2	0	0	0	0	572	
5	0	0	0	0	587	3	0	0	0	0	598	
6	0	0	0	0	580	4	0	0	0	0	555	
7	0	0	0	0	511	5	0	0	0	0	576	
8	0	0	0	0	584	6	0	0	0	0	550	
9	0	0	0	0	557	7	0	0	0	0	596	
10	0	0	0	0	580	8	0	0	0	0	597	
11	0	0	0	0	540	9	0	0	0	0	600	
12	0	0	0	0	582	10	0	0	0	0	578	
13	0	0	0	0	500	11	0	0	0	0	598	
14	0	0	0	0	538	12	0	0	0	0	595	
15	0	0	0	0	499	13	0	0	0	0	599	
0	0	0	0	0	567	14	0	0	0	0	584	
1	0	0	0	0	576	15	0	0	0	0	568	
2	0	0	0	0	537	0	0	0	0	0	608	
3	0	0	0	0	550	1	0	0	0	0	598	
4	0	0	0	0	568	2	0	0	0	0	554	
5	0	0	0	0	563	3	0	0	0	0	597	
6	0	0	0	0	578	4	0	0	0	0	578	
7	0	0	0	0	518	5	0	0	0	0	551	
8	0	0	0	0	509	6	0	0	0	0	571	
9	0	0	0	0	518	7	0	0	0	0	580	
10	0	0	0	0	572	8	0	0	0	0	595	
11	0	0	0	0	579	9	0	0	0	0	568	
12	0	0	0	0	576	10	0	0	0	0	608	
13	0	0	0	0	576	11	0	0	0	0	609	
14	0	0	0	0	559	12	0	0	0	0	570	
15	0	0	0	0	552	13	0	0	0	0	551	
0	0	0	0	0	526	14	0	0	0	0	550	
1	0	0	0	0	559	15	0	0	0	0	571	
2	0	0	0	0	489	0	0	0	0	0	600	
3	0	0	0	0	550	1	0	0	0	0	595	
4	0	0	0	0	561	2	0	0	0	0	568	
5	0	0	0	0	528	3	0	0	0	0	568	
6	0	0	0	0	556	4	0	0	0	0	574	
7	0	0	0	0	516	5	0	0	0	0	600	
8	0	0	0	0	553	6	0	0	0	0	551	
9	0	0	0	0	551	7	0	0	0	0	608	
10	0	0	0	0	492	8	0	0	0	0	568	
11	0	0	0	0	536	9	0	0	0	0	598	
12	0	0	0	0	505	10	0	0	0	0	557	
13	0	0	0	0	525	11	0	0	0	0	554	
14	0	0	0	0	539	12	0	0	0	0	568	
15	0	0	0	0	471	13	0	0	0	0	611	
0	0	0	0	0	512	14	0	0	0	0	578	
1	0	0	0	0	540	15	0	0	0	0	569	
2	0	0	0	0	525	0	0	0	0	0	611	
3	0	0	0	0	530	1	0	0	0	0	611	
4	0	0	0	0	457	2	0	0	0	0	574	
5	0	0	0	0	532	3	0	0	0	0	598	
6	0	0	0	0	533	4	0	0	0	0	592	
7	0	0	0	0	518	5	0	0	0	0	571	
8	0	0	0	0	531	6	0	0	0	0	576	
9	0	0	0	0	519	7	0	0	0	0	592	
10	0	0	0	0	450	8	0	0	0	0	599	
11	0	0	0	0	527	9	0	0	0	0	596	
12	0	0	0	0	506	10	0	0	0	0	601	
13	0	0	0	0	479	11	0	0	0	0	609	
14	0	0	0	0	527	12	0	0	0	0	599	
15	0	0	0	0	527	13	0	0	0	0	607	
0	0	0	0	0	487	14	0	0	0	0	600	
1	0	0	0	0	460	15	0	0	0	0	611	
2	0	0	0	0	471	0	0	0	0	0	611	
3	0	0	0	0	512	1	0	0	0	0	552	
4	0	0	0	0	496	2	0	0	0	0	611	
5	0	0	0	0	455	3	0	0	0	0	574	
6	0	0	0	0	496	4	0	0	0	0	586	
7	0	0	0	0	440	5	0	0	0	0	595	
8	0	0	0	0	439	6	0	0	0	0	572	
9	0	0	0	0	515	7	0	0	0	0	601	
10	0	0	0	0	519	8	0	0	0	0	611	
11	0	0	0	0	519	9	0	0	0	0	572	
12	0	0	0	0	522	10	0	0	0	0	551	
13	0	0	0	0	470	11	0	0	0	0	572	
14	0	0	0	0	521	12	0	0	0	0	599	
15	0	0	0	0	503	13	0	0	0	0	569	
0	0	0	0	0	450	14	0	0	0	0	609	
1	0	0	0	0	463	15	0	0	0	0	600	
2	0	0	0	0	497	0	0	0	0	0	552	
3	0	0	0	0	521	1	0	0	0	0	560	
4	0	0	0	0	520	2	0	0	0	0	569	
5	0	0	0	0	446	3	0	0	0	0	572	
6	0	0	0	0	524	4	0	0	0	0	600	
7	0	0	0	0	451	5	0	0	0	0	555	
8	0	0	0	0	523	6	0	0	0	0	609	
9	0	0	0	0	445	7	0	0	0	0	600	
10	0	0	0	0	517	8	0	0	0	0	610	
11	0	0	0	0	499	9	0	0	0	0	568	
12	0	0	0	0	461	10	0	0	0	0	573	
13	0	0	0	0	481	11	0	0	0	0	609	
14	0	0	0	0	518	12	0	0	0	0	568	
15	0	0	0	0	535	13	0	0	0	0	599	
0	0	0	0	0	466	14	0	0	0	0	604	
1	0	0	0	0	504	15	0	0	0	0	599	
2	0	0	0	0	458	0	0	0	0	0	607	
3	0	0	0	0	537	1	0	0	0	0	608	
4	0	0	0	0	467	2	0	0	0	0	575	
5	0	0	0	0	537	3	0	0	0	0	566	
6	0	0	0	0	536	4	0	0	0	0	599	
7	0	0	0	0	459	5	0	0	0	0	599	
8	0	0	0	0	501	6	0	0	0	0	585	
9	0	0	0	0	534	7	0	0	0	0	570	
10	0	0	0	0	533	8	0	0	0	0	551	
11	0	0	0	0	531	9	0	0	0	0	580	
12	0	0	0	0	531	10	0	0	0	0	575	
13	0	0	0	0	492	11	0	0	0	0	566	
14	0	0	0	0	479	12	0	0	0	0	553	
15	0	0	0	0	514	13	0	0	0	0	575	
0	0	0	0	0	524	14	0	0	0	0	608	
1	0	0	0	0	464	15	0	0	0	0	565	
2	0	0	0	0	446	0	0	0	0	0	596	
3	0	0	0	0	524	1	0	0	0	0	548	
4	0	0	0	0	521	2	0	0	0	0	598	
5	0	0	0	0	461	3	0	0	0	0	565	
6	0	0	0	0	517	4	0	0	0	0	586	
7	0	0	0	0	466	5	0	0	0	0	605	
8	0	0	0	0	520	6	0	0	0	0	564	
9	0	0	0	0	503	7	0	0	0	0	564	
10	0	0	0	0	448	8	0	0	0	0	602	
11	0	0	0	0	509	9	0	0	0	0	576	
12	0	0	0	0	447	10	0	0	0	0	564	
13	0	0	0	0	524	11	0	0	0	0	593	
14	0	0	0	0	524	12	0	0	0	0	572	
15	0	0	0	0	523	13	0	0	0	0	563	
0	0	0	0	0	475	14	0	0	0	0	585	
1	0	0	0	0	476	15	0	0	0	0	554	
2	0	0	0	0	442	0	0	0	0	0	572	
3	0	0	0	0	520	1	0	0	0	0	589	
4	0	0	0	0	516	2	0	0	0	0	558	
5	0	0	0	0	517	3	0	0	0	0	592	
6	0	0	0	0	515	4	0	0	0	0	579	
7	0	0	0	0	441	5	0	0	0	0	595	
8	0	0	0	0	437	6	0	0	0	0	604	
9	0	0	0	0	486	7	0	0	0	0	585	
10	0	0	0	0	512	8	0	0	0	0	545	
11	0	0	0	0	481	9	0	0	0	0	563	
12	0	0	0	0	500	10	0	0	0	0	593	
13	0	0	0	0	508	11	0	0	0	0	592	
14	0	0	0	0	429	12	0	0	0	0	602	
15	0	0	0	0	472	13	0	0	0	0	568	
0	0	0	0	0	428	14	0	0	0	0	601	
1	0	0	0	0	485	15	0	0	0	0	600	
2	0	0	0	0	433	0	0	0	0	0	601	
3	0	0	0	0	430	1	0	0	0	0	594	
4	0	0	0	0	501	2	0	0	0	0	574	
5	0	0	0	0	422	3	0	0	0	0	563	
6	0	0	0	0	499	4	0	0	0	0	564	
7	0	0	0	0	428	5	0	0	0	0	562	
8	0	0	0	0	497	6	0	0	0	0	540	
9	0	0	0	0	495	7	0	0	0	0	586	
10	0	0	0	0	491	8	0	0	0	0	579	
11	0	0	0	0	472	9	0	0	0	0	584	
12	0	0	0	0	484	10	0	0	0	0	541	
13	0	0	0	0	489	11	0	0	0	0	599	
14	0	0	0	0	481	12	0	0	0	0	559	
15	0	0	0	0	489	13	0	0	0	0	557	
0	0	0	0	0	415	14	0	0	0	0	561	
1	0	0	0	0	447	15	0	0	0	0	588	
2	0	0	0	0	458	0	0	0	0	0	539	
3	0	0	0	0	483	1	0	0	0	0	597	
4	0	0	0	0	438	2	0	0	0	0	595	
5	0	0	0	0	484	3	0	0	0	0	556	
6	0	0	0	0	438	4	0	0	0	0	586	
7	0	0	0	0	436	5	0	0	0	0	557	
8	0	0	0	0	464	6	0	0	0	0	566	
9	0	0	0	0	403	7	0	0	0	0	584	
10	0	0	0	0	479	8	0	0	0	0	554	
11	0	0	0	0	477	9	0	0	0	0	561	
12	0	0	0	0	434	10	0	0	0	0	551	
13	0	0	0	0	397	11	0	0	0	0	540	
14	0	0	0	0	455	12	0	0	0	0	563	
15	0	0	0	0	409	13	0	0	0	0	593	
0	0	0	0	0	441	14	0	0	0	0	563	
1	0	0	0	0	472	15	0	0	0	0	550	
2	0	0	0	0	468	0	0	0	0	0	552	
3	0	0	0	0	391	1	0	0	0	0	560	
4	0	0	0	0	425	2	0	0	0	0	549	
5	0	0	0	0	459	3	0	0	0	0	555	
6	0	0	0	0	421	4	0	0	0	0	590	
7	0	0	0	0	391	5	0	0	0	0	590	
8	0	0	0	0	464	6	0	0	0	0	547	
9	0	0	0	0	389	7	0	0	0	0	589	
10	0	0	0	0	465	8	0	0	0	0	528	
11	0	0	0	0	386	9	0	0	0	0	578	
12	0	0	0	0	446	10	0	0	0	0	545	
13	0	0	0	0	419	11	0	0	0	0	544	
14	0	0	0	0	458	12	0	0	0	0	587	
15	0	0	0	0	454	13	0	0	0	0	577	
0	0	0	0	0	422	14	0	0	0	0	548	
1	0	0	0	0	458	15	0	0	0	0	578	
2	0	0	0	0	379	0	0	0	0	0	543	
3	0	0	0	0	432	1	0	0	0	0	543	
4	0	0	0	0	410	2	0	0	0	0	574	
5	0	0	0	0	375	3	0	0	0	0	568	
6	0	0	0	0	453	4	0	0	0	0	570	
7	0	0	0	0	377	5	0	0	0	0	538	
8	0	0	0	0	445	6	0	0	0	0	551	
9	0	0	0	0	425	7	0	0	0	0	573	
10	0	0	0	0	441	8	0	0	0	0	521	
11	0	0	0	0	370	9	0	0	0	0	524	
12	0	0	0	0	413	10	0	0	0	0	526	
13	0	0	0	0	444	11	0	0	0	0	526	
14	0	0	0	0	369	12	0	0	0	0	523	
15	0	0	0	0	368	13	0	0	0	0	522	
0	0	0	0	0	374	14	0	0	0	0	575	
1	0	0	0	0	373	15	0	0	0	0	558	
2	0	0	0	0	404	0	0	0	0	0	521	
3	0	0	0	0	448	1	0	0	0	0	578	
4	0	0	0	0	448	2	0	0	0	0	536	
5	0	0	0	0	369	3	0	0	0	0	535	
6	0	0	0	0	370	4	0	0	0	0	567	
7	0	0	0	0	384	5	0	0	0	0	577	
8	0	0	0	0	446	6	0	0	0	0	536	
9	0	0	0	0	375	7	0	0	0	0	566	
10	0	0	0	0	366	8	0	0	0	0	566	
11	0	0	0	0	439	9	0	0	0	0	565	
12	0	0	0	0	442	10	0	0	0	0	548	
13	0	0	0	0	397	11	0	0	0	0	567	
14	0	0	0	0	438	12	0	0	0	0	533	
15	0	0	0	0	423	13	0	0	0	0	513	
0	0	0	0	0	402	14	0	0	0	0	553	
1	0	0	0	0	386	15	0	0	0	0	511	
2	0	0	0	0	434	0	0	0	0	0	569	
3	0	0	0	0	429	1	0	0	0	0	556	
4	0	0	0	0	401	2	0	0	0	0	568	
5	0	0	0	0	386	3	0	0	0	0	532	
6	0	0	0	0	429	4	0	0	0	0	534	
7	0	0	0	0	422	5	0	0	0	0	560	
8	0	0	0	0	361	6	0	0	0	0	514	
9	0	0	0	0	418	7	0	0	0	0	559	
10	0	0	0	0	404	8	0	0	0	0	509	
11	0	0	0	0	426	9	0	0	0	0	527	
12	0	0	0	0	419	10	0	0	0	0	552	
13	0	0	0	0	418	11	0	0	0	0	507	
14	0	0	0	0	413	12	0	0	0	0	553	
15	0	0	0	0	390	13	0	0	0	0	526	
0	0	0	0	0	379	14	0	0	0	0	556	
1	0	0	0	0	419	15	0	0	0	0	540	
2	0	0	0	0	401	0	0	0	0	0	555	
3	0	0	0	0	357	1	0	0	0	0	554	
4	0	0	0	0	340	2	0	0	0	0	512	
5	0	0	0	0	419	3	0	0	0	0	502	
6	0	0	0	0	415	4	0	0	0	0	512	
7	0	0	0	0	413	5	0	0	0	0	523	
8	0	0	0	0	338	6	0	0	0	0	503	
9	0	0	0	0	355	7	0	0	0	0	561	
10	0	0	0	0	413	8	0	0	0	0	560	
11	0	0	0	0	336	9	0	0	0	0	559	
12	0	0	0	0	414	10	0	0	0	0	558	
13	0	0	0	0	341	11	0	0	0	0	529	
14	0	0	0	0	413	12	0	0	0	0	534	
15	0	0	0	0	384	13	0	0	0	0	516	
0	0	0	0	0	334	14	0	0	0	0	516	
1	0	0	0	0	406	15	0	0	0	0	526	
2	0	0	0	0	335	0	0	0	0	0	556	
3	0	0	0	0	335	1	0	0	0	0	515	
4	0	0	0	0	336	2	0	0	0	0	545	
5	0	0	0	0	406	3	0	0	0	0	556	
6	0	0	0	0	342	4	0	0	0	0	518	
7	0	0	0	0	361	5	0	0	0	0	506	
8	0	0	0	0	373	6	0	0	0	0	532	
9	0	0	0	0	332	7	0	0	0	0	494	
10	0	0	0	0	409	8	0	0	0	0	519	
11	0	0	0	0	409	9	0	0	0	0	547	
12	0	0	0	0	340	10	0	0	0	0	495	
13	0	0	0	0	368	11	0	0	0	0	550	
14	0	0	0	0	400	12	0	0	0	0	510	
15	0	0	0	0	327	13	0	0	0	0	510	
0	0	0	0	0	351	14	0	0	0	0	508	
1	0	0	0	0	336	15	0	0	0	0	548	
2	0	0	0	0	389	0	0	0	0	0	549	
3	0	0	0	0	336	1	0	0	0	0	543	
4	0	0	0	0	402	2	0	0	0	0	489	
5	0	0	0	0	403	3	0	0	0	0	489	
6	0	0	0	0	401	4	0	0	0	0	514	
7	0	0	0	0	329	5	0	0	0	0	525	
8	0	0	0	0	332	6	0	0	0	0	512	
9	0	0	0	0	375	7	0	0	0	0	536	
10	0	0	0	0	401	8	0	0	0	0	522	
11	0	0	0	0	399	9	0	0	0	0	531	
12	0	0	0	0	398	10	0	0	0	0	535	
13	0	0	0	0	397	11	0	0	0	0	536	
14	0	0	0	0	354	12	0	0	0	0	504	
15	0	0	0	0	396	13	0	0	0	0	546	
0	0	0	0	0	395	14	0	0	0	0	526	
1	0	0	0	0	332	15	0	0	0	0	481	
2	0	0	0	0	320	0	0	0	0	0	482	
3	0	0	0	0	396	1	0	0	0	0	515	
4	0	0	0	0	395	2	0	0	0	0	521	
5	0	0	0	0	328	3	0	0	0	0	519	
6	0	0	0	0	323	4	0	0	0	0	514	
7	0	0	0	0	371	5	0	0	0	0	516	
8	0	0	0	0	318	6	0	0	0	0	481	
9	0	0	0	0	373	7	0	0	0	0	529	
10	0	0	0	0	395	8	0	0	0	0	478	
11	0	0	0	0	389	9	0	0	0	0	519	
12	0	0	0	0	335	10	0	0	0	0	530	
13	0	0	0	0	358	11	0	0	0	0	480	
14	0	0	0	0	392	12	0	0	0	0	480	
15	0	0	0	0	391	13	0	0	0	0	478	
0	0	0	0	0	387	14	0	0	0	0	496	
1	0	0	0	0	315	15	0	0	0	0	479	
2	0	0	0	0	371	0	0	0	0	0	481	
3	0	0	0	0	361	1	0	0	0	0	539	
4	0	0	0	0	310	2	0	0	0	0	528	
5	0	0	0	0	328	3	0	0	0	0	521	
6	0	0	0	0	376	4	0	0	0	0	496	
7	0	0	0	0	384	5	0	0	0	0	488	
8	0	0	0	0	320	6	0	0	0	0	498	
9	0	0	0	0	334	7	0	0	0	0	482	
10	0	0	0	0	332	8	0	0	0	0	535	
11	0	0	0	0	307	9	0	0	0	0	495	
12	0	0	0	0	388	10	0	0	0	0	535	
13	0	0	0	0	385	11	0	0	0	0	509	
14	0	0	0	0	387	12	0	0	0	0	534	
15	0	0	0	0	385	13	0	0	0	0	525	
0	0	0	0	0	305	14	0	0	0	0	478	
1	0	0	0	0	334	15	0	0	0	0	519	
2	0	0	0	0	320	0	0	0	0	0	492	
3	0	0	0	0	381	1	0	0	0	0	521	
4	0	0	0	0	371	2	0	0	0	0	508	
5	0	0	0	0	344	3	0	0	0	0	524	
6	0	0	0	0	311	4	0	0	0	0	524	
7	0	0	0	0	380	5	0	0	0	0	491	
8	0	0	0	0	380	6	0	0	0	0	492	
9	0	0	0	0	375	7	0	0	0	0	515	
10	0	0	0	0	347	8	0	0	0	0	523	
11	0	0	0	0	302	9	0	0	0	0	473	
12	0	0	0	0	378	10	0	0	0	0	516	
13	0	0	0	0	303	11	0	0	0	0	499	
14	0	0	0	0	298	12	0	0	0	0	498	
15	0	0	0	0	374	13	0	0	0	0	495	
0	0	0	0	0	377	14	0	0	0	0	469	
1	0	0	0	0	314	15	0	0	0	0	505	
2	0	0	0	0	377	0	0	0	0	0	498	
3	0	0	0	0	375	1	0	0	0	0	519	
4	0	0	0	0	355	2	0	0	0	0	509	
5	0	0	0	0	315	3	0	0	0	0	506	
6	0	0	0	0	379	4	0	0	0	0	486	
7	0	0	0	0	335	5	0	0	0	0	487	
8	0	0	0	0	304	6	0	0	0	0	522	
9	0	0	0	0	372	7	0	0	0	0	490	
10	0	0	0	0	305	8	0	0	0	0	516	
11	0	0	0	0	326	9	0	0	0	0	526	
12	0	0	0	0	384	10	0	0	0	0	505	
13	0	0	0	0	304	11	0	0	0	0	506	
14	0	0	0	0	384	12	0	0	0	0	470	
15	0	0	0	0	384	13	0	0	0	0	464	
0	0	0	0	0	382	14	0	0	0	0	481	
1	0	0	0	0	330	15	0	0	0	0	514	
2	0	0	0	0	360	0	0	0	0	0	492	
3	0	0	0	0	315	1	0	0	0	0	481	
4	0	0	0	0	325	2	0	0	0	0	479	
5	0	0	0	0	322	3	0	0	0	0	485	
6	0	0	0	0	329	4	0	0	0	0	511	
7	0	0	0	0	299	5	0	0	0	0	460	
8	0	0	0	0	352	6	0	0	0	0	499	
9	0	0	0	0	377	7	0	0	0	0	493	
10	0	0	0	0	374	8	0	0	0	0	495	
11	0	0	0	0	369	9	0	0	0	0	489	
12	0	0	0	0	302	10	0	0	0	0	473	
13	0	0	0	0	368	11	0	0	0	0	496	
14	0	0	0	0	375	12	0	0	0	0	486	
15	0	0	0	0	371	13	0	0	0	0	457	
0	0	0	0	0	373	14	0	0	0	0	472	
1	0	0	0	0	295	15	0	0	0	0	482	
2	0	0	0	0	322	0	0	0	0	0	482	
3	0	0	0	0	346	1	0	0	0	0	470	
4	0	0	0	0	365	2	0	0	0	0	472	
5	0	0	0	0	310	3	0	0	0	0	454	
6	0	0	0	0	324	4	0	0	0	0	501	
7	0	0	0	0	369	5	0	0	0	0	515	
8	0	0	0	0	364	6	0	0	0	0	484	
9	0	0	0	0	331	7	0	0	0	0	514	
10	0	0	0	0	337	8	0	0	0	0	501	
11	0	0	0	0	320	9	0	0	0	0	469	
12	0	0	0	0	329	10	0	0	0	0	495	
13	0	0	0	0	355	11	0	0	0	0	500	
14	0	0	0	0	373	12	0	0	0	0	499	
15	0	0	0	0	297	13	0	0	0	0	499	
0	0	0	0	0	301	14	0	0	0	0	449	
1	0	0	0	0	383	15	0	0	0	0	458	
2	0	0	0	0	345	0	0	0	0	0	498	
3	0	0	0	0	389	1	0	0	0	0	497	
4	0	0	0	0	318	2	0	0	0	0	455	
5	0	0	0	0	359	3	0	0	0	0	450	
6	0	0	0	0	318	4	0	0	0	0	505	
7	0	0	0	0	330	5	0	0	0	0	446	
8	0	0	0	0	401	6	0	0	0	0	469	
9	0	0	0	0	402	7	0	0	0	0	442	
10	0	0	0	0	324	8	0	0	0	0	480	
11	0	0	0	0	324	9	0	0	0	0	480	
12	0	0	0	0	343	10	0	0	0	0	493	
13	0	0	0	0	325	11	0	0	0	0	488	
14	0	0	0	0	371	12	0	0	0	0	444	
15	0	0	0	0	384	13	0	0	0	0	502	
0	0	0	0	0	399	14	0	0	0	0	490	
1	0	0	0	0	376	15	0	0	0	0	500	
2	0	0	0	0	401	0	0	0	0	0	460	
3	0	0	0	0	337	1	0	0	0	0	487	
4	0	0	0	0	356	2	0	0	0	0	457	
5	0	0	0	0	365	3	0	0	0	0	483	
6	0	0	0	0	348	4	0	0	0	0	452	
7	0	0	0	0	320	5	0	0	0	0	470	
8	0	0	0	0	319	6	0	0	0	0	487	
9	0	0	0	0	351	7	0	0	0	0	443	
10	0	0	0	0	397	8	0	0	0	0	495	
11	0	0	0	0	396	9	0	0	0	0	460	
12	0	0	0	0	320	10	0	0	0	0	486	
13	0	0	0	0	316	11	0	0	0	0	453	
14	0	0	0	0	377	12	0	0	0	0	494	
15	0	0	0	0	347	13	0	0	0	0	483	
0	0	0	0	0	392	14	0	0	0	0	435	
1	0	0	0	0	380	15	0	0	0	0	493	
2	0	0	0	0	316	0	0	0	0	0	451	
3	0	0	0	0	313	1	0	0	0	0	450	
4	0	0	0	0	371	2	0	0	0	0	452	
5	0	0	0	0	335	3	0	0	0	0	478	
6	0	0	0	0	313	4	0	0	0	0	486	
7	0	0	0	0	329	5	0	0	0	0	448	
8	0	0	0	0	364	6	0	0	0	0	475	
9	0	0	0	0	391	7	0	0	0	0	479	
10	0	0	0	0	387	8	0	0	0	0	429	
11	0	0	0	0	313	9	0	0	0	0	464	
12	0	0	0	0	361	10	0	0	0	0	455	
13	0	0	0	0	332	11	0	0	0	0	467	
14	0	0	0	0	310	12	0	0	0	0	478	
15	0	0	0	0	309	13	0	0	0	0	444	
0	0	0	0	0	370	14	0	0	0	0	457	
1	0	0	0	0	311	15	0	0	0	0	444	
2	0	0	0	0	324	0	0	0	0	0	452	
3	0	0	0	0	307	1	0	0	0	0	430	
4	0	0	0	0	307	2	0	0	0	0	444	
5	0	0	0	0	352	3	0	0	0	0	473	
6	0	0	0	0	384	4	0	0	0	0	484	
7	0	0	0	0	312	5	0	0	0	0	462	
8	0	0	0	0	384	6	0	0	0	0	467	
9	0	0	0	0	307	7	0	0	0	0	481	
10	0	0	0	0	349	8	0	0	0	0	475	
11	0	0	0	0	383	9	0	0	0	0	451	
12	0	0	0	0	310	10	0	0	0	0	420	
13	0	0	0	0	348	11	0	0	0	0	470	
14	0	0	0	0	358	12	0	0	0	0	460	
15	0	0	0	0	380	13	0	0	0	0	423	
0	0	0	0	0	371	14	0	0	0	0	449	
1	0	0	0	0	338	15	0	0	0	0	419	
2	0	0	0	0	331	0	0	0	0	0	476	
3	0	0	0	0	377	1	0	0	0	0	465	
4	0	0	0	0	327	2	0	0	0	0	467	
5	0	0	0	0	345	3	0	0	0	0	465	
6	0	0	0	0	375	4	0	0	0	0	415	
7	0	0	0	0	323	5	0	0	0	0	415	
8	0	0	0	0	373	6	0	0	0	0	471	
9	0	0	0	0	312	7	0	0	0	0	474	
10	0	0	0	0	375	8	0	0	0	0	452	
11	0	0	0	0	295	9	0	0	0	0	431	
12	0	0	0	0	321	10	0	0	0	0	431	
13	0	0	0	0	349	11	0	0	0	0	430	
14	0	0	0	0	345	12	0	0	0	0	461	
15	0	0	0	0	369	13	0	0	0	0	412	
0	0	0	0	0	327	14	0	0	0	0	471	
1	0	0	0	0	311	15	0	0	0	0	461	
2	0	0	0	0	361	0	0	0	0	0	414	
3	0	0	0	0	360	1	0	0	0	0	432	
4	0	0	0	0	300	2	0	0	0	0	428	
5	0	0	0	0	314	3	0	0	0	0	470	
6	0	0	0	0	368	4	0	0	0	0	462	
7	0	0	0	0	353	5	0	0	0	0	459	
8	0	0	0	0	356	6	0	0	0	0	466	
9	0	0	0	0	367	7	0	0	0	0	453	
10	0	0	0	0	366	8	0	0	0	0	426	
11	0	0	0	0	364	9	0	0	0	0	409	
12	0	0	0	0	353	10	0	0	0	0	470	
13	0	0	0	0	364	11	0	0	0	0	427	
14	0	0	0	0	364	12	0	0	0	0	467	
15	0	0	0	0	362	13	0	0	0	0	463	
0	0	0	0	0	363	14	0	0	0	0	427	
1	0	0	0	0	285	15	0	0	0	0	410	
2	0	0	0	0	342	0	0	0	0	0	428	
3	0	0	0	0	352	1	0	0	0	0	460	
4	0	0	0	0	364	2	0	0	0	0	440	
5	0	0	0	0	358	3	0	0	0	0	471	
6	0	0	0	0	294	4	0	0	0	0	429	
7	0	0	0	0	372	5	0	0	0	0	430	
8	0	0	0	0	342	6	0	0	0	0	430	
9	0	0	0	0	374	7	0	0	0	0	422	
10	0	0	0	0	326	8	0	0	0	0	441	
11	0	0	0	0	321	9	0	0	0	0	433	
12	0	0	0	0	378	10	0	0	0	0	433	
13	0	0	0	0	362	11	0	0	0	0	464	
14	0	0	0	0	307	12	0	0	0	0	467	
15	0	0	0	0	300	13	0	0	0	0	436	
0	0	0	0	0	300	14	0	0	0	0	433	
1	0	0	0	0	336	15	0	0	0	0	417	
2	0	0	0	0	300	0	0	0	0	0	434	
3	0	0	0	0	308	1	0	0	0	0	464	
4	0	0	0	0	315	2	0	0	0	0	473	
5	0	0	0	0	378	3	0	0	0	0	438	
6	0	0	0	0	335	4	0	0	0	0	457	
7	0	0	0	0	376	5	0	0	0	0	459	
8	0	0	0	0	349	6	0	0	0	0	475	
9	0	0	0	0	375	7	0	0	0	0	435	
10	0	0	0	0	371	8	0	0	0	0	435	
11	0	0	0	0	304	9	0	0	0	0	472	
12	0	0	0	0	349	10	0	0	0	0	470	
13	0	0	0	0	293	11	0	0	0	0	467	
14	0	0	0	0	296	12	0	0	0	0	478	
15	0	0	0	0	366	13	0	0	0	0	435	
0	0	0	0	0	323	14	0	0	0	0	435	
1	0	0	0	0	294	15	0	0	0	0	436	
2	0	0	0	0	315	0	0	0	0	0	478	
3	0	0	0	0	371	1	0	0	0	0	479	
4	0	0	0	0	292	2	0	0	0	0	437	
5	0	0	0	0	367	3	0	0	0	0	439	
6	0	0	0	0	356	4	0	0	0	0	438	
7	0	0	0	0	330	5	0	0	0	0	467	
8	0	0	0	0	370	6	0	0	0	0	464	
9	0	0	0	0	369	7	0	0	0	0	438	
10	0	0	0	0	364	8	0	0	0	0	470	
11	0	0	0	0	305	9	0	0	0	0	480	
12	0	0	0	0	332	10	0	0	0	0	470	
13	0	0	0	0	287	11	0	0	0	0	479	
14	0	0	0	0	291	12	0	0	0	0	438	
15	0	0	0	0	287	13	0	0	0	0	445	
0	0	0	0	0	320	14	0	0	0	0	467	
1	0	0	0	0	292	15	0	0	0	0	445	
2	0	0	0	0	295	0	0	0	0	0	429	
3	0	0	0	0	343	1	0	0	0	0	438	
4	0	0	0	0	342	2	0	0	0	0	470	
5	0	0	0	0	284	3	0	0	0	0	480	
6	0	0	0	0	362	4	0	0	0	0	438	
7	0	0	0	0	357	5	0	0	0	0	471	
8	0	0	0	0	350	6	0	0	0	0	480	
9	0	0	0	0	360	7	0	0	0	0	470	
10	0	0	0	0	354	8	0	0	0	0	444	
11	0	0	0	0	347	9	0	0	0	0	459	
12	0	0	0	0	312	10	0	0	0	0	478	
13	0	0	0	0	346	11	0	0	0	0	437	
14	0	0	0	0	359	12	0	0	0	0	471	
15	0	0	0	0	350	13	0	0	0	0	440	
0	0	0	0	0	358	14	0	0	0	0	420	
1	0	0	0	0	279	15	0	0	0	0	447	
2	0	0	0	0	348	0	0	0	0	0	426	
3	0	0	0	0	351	1	0	0	0	0	423	
4	0	0	0	0	355	2	0	0	0	0	439	
5	0	0	0	0	353	3	0	0	0	0	420	
6	0	0	0	0	347	4	0	0	0	0	420	
7	0	0	0	0	289	5	0	0	0	0	464	
8	0	0	0	0	353	6	0	0	0	0	472	
9	0	0	0	0	302	7	0	0	0	0	460	
10	0	0	0	0	351	8	0	0	0	0	480	
11	0	0	0	0	291	9	0	0	0	0	461	
12	0	0	0	0	276	10	0	0	0	0	460	
13	0	0	0	0	351	11	0	0	0	0	470	
14	0	0	0	0	349	12	0	0	0	0	476	
15	0	0	0	0	271	13	0	0	0	0	461	
0	0	0	0	0	342	14	0	0	0	0	473	
1	0	0	0	0	270	15	0	0	0	0	473	
2	0	0	0	0	339	0	0	0	0	0	428	
3	0	0	0	0	269	1	0	0	0	0	476	
4	0	0	0	0	319	2	0	0	0	0	470	
5	0	0	0	0	298	3	0	0	0	0	479	
6	0	0	0	0	343	4	0	0	0	0	439	
7	0	0	0	0	270	5	0	0	0	0	438	
8	0	0	0	0	342	6	0	0	0	0	470	
9	0	0	0	0	271	7	0	0	0	0	480	
10	0	0	0	0	346	8	0	0	0	0	421	
11	0	0	0	0	266	9	0	0	0	0	445	
12	0	0	0	0	332	10	0	0	0	0	439	
13	0	0	0	0	330	11	0	0	0	0	469	
14	0	0	0	0	326	12	0	0	0	0	423	
15	0	0	0	0	343	13	0	0	0	0	465	
0	0	0	0	0	281	14	0	0	0	0	478	
1	0	0	0	0	323	15	0	0	0	0	445	
2	0	0	0	0	269	0	0	0	0	0	469	
3	0	0	0	0	344	1	0	0	0	0	440	
4	0	0	0	0	333	2	0	0	0	0	459	
5	0	0	0	0	344	3	0	0	0	0	419	
6	0	0	0	0	317	4	0	0	0	0	477	
7	0	0	0	0	316	5	0	0	0	0	451	
8	0	0	0	0	348	6	0	0	0	0	445	
9	0	0	0	0	325	7	0	0	0	0	479	
10	0	0	0	0	279	8	0	0	0	0	468	
11	0	0	0	0	333	9	0	0	0	0	479	
12	0	0	0	0	297	10	0	0	0	0	465	
13	0	0	0	0	353	11	0	0	0	0	478	
14	0	0	0	0	275	12	0	0	0	0	468	
15	0	0	0	0	339	13	0	0	0	0	467	
0	0	0	0	0	350	14	0	0	0	0	474	
1	0	0	0	0	338	15	0	0	0	0	416	
2	0	0	0	0	278	0	0	0	0	0	419	
3	0	0	0	0	342	1	0	0	0	0	423	
4	0	0	0	0	280	2	0	0	0	0	474	
5	0	0	0	0	356	3	0	0	0	0	435	
6	0	0	0	0	351	4	0	0	0	0	428	
7	0	0	0	0	336	5	0	0	0	0	429	
8	0	0	0	0	307	6	0	0	0	0	476	
9	0	0	0	0	353	7	0	0	0	0	477	
10	0	0	0	0	323	8	0	0	0	0	446	
11	0	0	0	0	323	9	0	0	0	0	464	
12	0	0	0	0	351	10	0	0	0	0	442	
13	0	0	0	0	339	11	0	0	0	0	470	
14	0	0	0	0	342	12	0	0	0	0	440	
15	0	0	0	0	278	13	0	0	0	0	435	
0	0	0	0	0	293	14	0	0	0	0	434	
1	0	0	0	0	347	15	0	0	0	0	447	
2	0	0	0	0	361	0	0	0	0	0	465	
3	0	0	0	0	359	1	0	0	0	0	433	
4	0	0	0	0	353	2	0	0	0	0	445	
5	0	0	0	0	293	3	0	0	0	0	436	
6	0	0	0	0	366	4	0	0	0	0	432	
7	0	0	0	0	363	5	0	0	0	0	455	
8	0	0	0	0	373	6	0	0	0	0	457	
9	0	0	0	0	372	7	0	0	0	0	454	
10	0	0	0	0	301	8	0	0	0	0	434	
11	0	0	0	0	377	9	0	0	0	0	459	
12	0	0	0	0	377	10	0	0	0	0	415	
13	0	0	0	0	378	11	0	0	0	0	463	
14	0	0	0	0	383	12	0	0	0	0	431	
15	0	0	0	0	307	13	0	0	0	0	463	
0	0	0	0	0	388	14	0	0	0	0	412	
1	0	0	0	0	366	15	0	0	0	0	415	
2	0	0	0	0	391	0	0	0	0	0	473	
3	0	0	0	0	394	1	0	0	0	0	434	
4	0	0	0	0	372	2	0	0	0	0	463	
5	0	0	0	0	322	3	0	0	0	0	472	
6	0	0	0	0	319	4	0	0	0	0	415	
7	0	0	0	0	361	5	0	0	0	0	463	
8	0	0	0	0	399	6	0	0	0	0	431	
9	0	0	0	0	397	7	0	0	0	0	462	
10	0	0	0	0	345	8	0	0	0	0	414	
11	0	0	0	0	323	9	0	0	0	0	417	
12	0	0	0	0	321	10	0	0	0	0	431	
13	0	0	0	0	366	11	0	0	0	0	472	
14	0	0	0	0	320	12	0	0	0	0	428	
15	0	0	0	0	399	13	0	0	0	0	471	
0	0	0	0	0	326	14	0	0	0	0	434	
1	0	0	0	0	338	15	0	0	0	0	445	
2	0	0	0	0	362	0	0	0	0	0	441	
3	0	0	0	0	327	1	0	0	0	0	458	
4	0	0	0	0	318	2	0	0	0	0	440	
5	0	0	0	0	343	3	0	0	0	0	444	
6	0	0	0	0	316	4	0	0	0	0	459	
7	0	0	0	0	361	5	0	0	0	0	458	
8	0	0	0	0	395	6	0	0	0	0	427	
9	0	0	0	0	316	7	0	0	0	0	440	
10	0	0	0	0	394	8	0	0	0	0	463	
11	0	0	0	0	318	9	0	0	0	0	449	
12	0	0	0	0	322	10	0	0	0	0	424	
13	0	0	0	0	333	11	0	0	0	0	436	
14	0	0	0	0	319	12	0	0	0	0	405	
15	0	0	0	0	392	13	0	0	0	0	428	
0	0	0	0	0	384	14	0	0	0	0	450	
1	0	0	0	0	391	15	0	0	0	0	451	
2	0	0	0	0	392	0	0	0	0	0	456	
3	0	0	0	0	384	1	0	0	0	0	424	
4	0	0	0	0	313	2	0	0	0	0	422	
5	0	0	0	0	392	3	0	0	0	0	455	
6	0	0	0	0	388	4	0	0	0	0	404	
7	0	0	0	0	358	5	0	0	0	0	432	
8	0	0	0	0	390	6	0	0	0	0	407	
9	0	0	0	0	392	7	0	0	0	0	432	
10	0	0	0	0	321	8	0	0	0	0	445	
11	0	0	0	0	392	9	0	0	0	0	448	
12	0	0	0	0	389	10	0	0	0	0	452	
13	0	0	0	0	389	11	0	0	0	0	434	
14	0	0	0	0	369	12	0	0	0	0	461	
15	0	0	0	0	336	13	0	0	0	0	419	
0	0	0	0	0	389	14	0	0	0	0	449	
1	0	0	0	0	310	15	0	0	0	0	451	
2	0	0	0	0	382	0	0	0	0	0	461	
3	0	0	0	0	315	1	0	0	0	0	462	
4	0	0	0	0	310	2	0	0	0	0	462	
5	0	0	0	0	364	3	0	0	0	0	419	
6	0	0	0	0	310	4	0	0	0	0	425	
7	0	0	0	0	309	5	0	0	0	0	422	
8	0	0	0	0	364	6	0	0	0	0	429	
9	0	0	0	0	312	7	0	0	0	0	424	
10	0	0	0	0	376	8	0	0	0	0	427	
11	0	0	0	0	321	9	0	0	0	0	444	
12	0	0	0	0	335	10	0	0	0	0	452	
13	0	0	0	0	362	11	0	0	0	0	464	
14	0	0	0	0	303	12	0	0	0	0	433	
15	0	0	0	0	315	13	0	0	0	0	463	
0	0	0	0	0	380	14	0	0	0	0	454	
1	0	0	0	0	379	15	0	0	0	0	405	
2	0	0	0	0	321	0	0	0	0	0	465	
3	0	0	0	0	376	1	0	0	0	0	467	
4	0	0	0	0	378	2	0	0	0	0	435	
5	0	0	0	0	352	3	0	0	0	0	435	
6	0	0	0	0	377	4	0	0	0	0	424	
7	0	0	0	0	370	5	0	0	0	0	425	
8	0	0	0	0	339	6	0	0	0	0	422	
9	0	0	0	0	376	7	0	0	0	0	407	
10	0	0	0	0	374	8	0	0	0	0	425	
11	0	0	0	0	301	9	0	0	0	0	447	
12	0	0	0	0	363	10	0	0	0	0	467	
13	0	0	0	0	373	11	0	0	0	0	461	
14	0	0	0	0	379	12	0	0	0	0	447	
15	0	0	0	0	379	13	0	0	0	0	467	
0	0	0	0	0	382	14	0	0	0	0	428	
1	0	0	0	0	383	15	0	0	0	0	428	
2	0	0	0	0	305	0	0	0	0	0	467	
3	0	0	0	0	384	1	0	0	0	0	459	
4	0	0	0	0	383	2	0	0	0	0	468	
5	0	0	0	0	373	3	0	0	0	0	457	
6	0	0	0	0	341	4	0	0	0	0	414	
7	0	0	0	0	304	5	0	0	0	0	428	
8	0	0	0	0	371	6	0	0	0	0	447	
9	0	0	0	0	382	7	0	0	0	0	470	
10	0	0	0	0	340	8	0	0	0	0	466	
11	0	0	0	0	315	9	0	0	0	0	454	
12	0	0	0	0	372	10	0	0	0	0	434	
13	0	0	0	0	379	11	0	0	0	0	428	
14	0	0	0	0	341	12	0	0	0	0	411	
15	0	0	0	0	372	13	0	0	0	0	429	
0	0	0	0	0	315	14	0	0	0	0	431	
1	0	0	0	0	298	15	0	0	0	0	471	
2	0	0	0	0	319	0	0	0	0	0	430	
3	0	0	0	0	322	1	0	0	0	0	463	
4	0	0	0	0	315	2	0	0	0	0	415	
5	0	0	0	0	377	3	0	0	0	0	415	
6	0	0	0	0	299	4	0	0	0	0	471	
7	0	0	0	0	360	5	0	0	0	0	418	
8	0	0	0	0	359	6	0	0	0	0	455	
9	0	0	0	0	314	7	0	0	0	0	468	
10	0	0	0	0	385	8	0	0	0	0	468	
11	0	0	0	0	388	9	0	0	0	0	421	
12	0	0	0	0	392	10	0	0	0	0	467	
13	0	0	0	0	396	11	0	0	0	0	422	
14	0	0	0	0	353	12	0	0	0	0	473	
15	0	0	0	0	355	13	0	0	0	0	421	
0	0	0	0	0	328	14	0	0	0	0	441	
1	0	0	0	0	400	15	0	0	0	0	472	
2	0	0	0	0	397	0	0	0	0	0	481	
3	0	0	0	0	406	1	0	0	0	0	440	
4	0	0	0	0	403	2	0	0	0	0	469	
5	0	0	0	0	407	3	0	0	0	0	474	
6	0	0	0	0	382	4	0	0	0	0	472	
7	0	0	0	0	389	5	0	0	0	0	482	
8	0	0	0	0	406	6	0	0	0	0	451	
9	0	0	0	0	400	7	0	0	0	0	440	
10	0	0	0	0	338	8	0	0	0	0	448	
11	0	0	0	0	387	9	0	0	0	0	476	
12	0	0	0	0	403	10	0	0	0	0	472	
13	0	0	0	0	405	11	0	0	0	0	440	
14	0	0	0	0	370	12	0	0	0	0	446	
15	0	0	0	0	349	13	0	0	0	0	454	
0	0	0	0	0	407	14	0	0	0	0	464	
1	0	0	0	0	330	15	0	0	0	0	422	
2	0	0	0	0	372	0	0	0	0	0	441	
3	0	0	0	0	399	1	0	0	0	0	450	
4	0	0	0	0	399	2	0	0	0	0	440	
5	0	0	0	0	377	3	0	0	0	0	482	
6	0	0	0	0	399	4	0	0	0	0	472	
7	0	0	0	0	333	5	0	0	0	0	484	
8	0	0	0	0	327	6	0	0	0	0	473	
9	0	0	0	0	328	7	0	0	0	0	457	
10	0	0	0	0	407	8	0	0	0	0	440	
11	0	0	0	0	355	9	0	0	0	0	442	
12	0	0	0	0	401	10	0	0	0	0	474	
13	0	0	0	0	404	11	0	0	0	0	475	
14	0	0	0	0	360	12	0	0	0	0	474	
15	0	0	0	0	370	13	0	0	0	0	456	
0	0	0	0	0	422	14	0	0	0	0	484	
1	0	0	0	0	393	15	0	0	0	0	445	
2	0	0	0	0	417	0	0	0	0	0	476	
3	0	0	0	0	379	1	0	0	0	0	438	
4	0	0	0	0	444	2	0	0	0	0	457	
5	0	0	0	0	369	3	0	0	0	0	480	
6	0	0	0	0	447	4	0	0	0	0	478	
7	0	0	0	0	453	5	0	0	0	0	433	
8	0	0	0	0	387	6	0	0	0	0	475	
9	0	0	0	0	431	7	0	0	0	0	450	
10	0	0	0	0	455	8	0	0	0	0	455	
11	0	0	0	0	456	9	0	0	0	0	478	
12	0	0	0	0	450	10	0	0	0	0	478	
13	0	0	0	0	417	11	0	0	0	0	465	
14	0	0	0	0	452	12	0	0	0	0	478	
15	0	0	0	0	421	13	0	0	0	0	488	
0	0	0	0	0	381	14	0	0	0	0	475	
1	0	0	0	0	372	15	0	0	0	0	488	
2	0	0	0	0	415	0	0	0	0	0	469	
3	0	0	0	0	449	1	0	0	0	0	431	
4	0	0	0	0	398	2	0	0	0	0	459	
5	0	0	0	0	448	3	0	0	0	0	433	
6	0	0	0	0	438	4	0	0	0	0	478	
7	0	0	0	0	369	5	0	0	0	0	435	
8	0	0	0	0	417	6	0	0	0	0	450	
9	0	0	0	0	369	7	0	0	0	0	482	
10	0	0	0	0	378	8	0	0	0	0	442	
11	0	0	0	0	369	9	0	0	0	0	484	
12	0	0	0	0	406	10	0	0	0	0	461	
13	0	0	0	0	446	11	0	0	0	0	486	
14	0	0	0	0	446	12	0	0	0	0	463	
15	0	0	0	0	366	13	0	0	0	0	439	
0	0	0	0	0	366	14	0	0	0	0	488	
1	0	0	0	0	444	15	0	0	0	0	498	
2	0	0	0	0	422	0	0	0	0	0	441	
3	0	0	0	0	443	1	0	0	0	0	481	
4	0	0	0	0	440	2	0	0	0	0	472	
5	0	0	0	0	411	3	0	0	0	0	466	
6	0	0	0	0	441	4	0	0	0	0	472	
7	0	0	0	0	417	5	0	0	0	0	460	
8	0	0	0	0	441	6	0	0	0	0	495	
9	0	0	0	0	361	7	0	0	0	0	457	
10	0	0	0	0	440	8	0	0	0	0	499	
11	0	0	0	0	393	9	0	0	0	0	489	
12	0	0	0	0	401	10	0	0	0	0	459	
13	0	0	0	0	437	11	0	0	0	0	488	
14	0	0	0	0	421	12	0	0	0	0	497	
15	0	0	0	0	362	13	0	0	0	0	484	
0	0	0	0	0	437	14	0	0	0	0	499	
1	0	0	0	0	358	15	0	0	0	0	487	
2	0	0	0	0	436	0	0	0	0	0	500	
3	0	0	0	0	380	1	0	0	0	0	487	
4	0	0	0	0	358	2	0	0	0	0	455	
5	0	0	0	0	433	3	0	0	0	0	500	
6	0	0	0	0	425	4	0	0	0	0	476	
7	0	0	0	0	434	5	0	0	0	0	441	
8	0	0	0	0	394	6	0	0	0	0	483	
9	0	0	0	0	363	7	0	0	0	0	440	
10	0	0	0	0	411	8	0	0	0	0	489	
11	0	0	0	0	412	9	0	0	0	0	501	
12	0	0	0	0	385	10	0	0	0	0	459	
13	0	0	0	0	408	11	0	0	0	0	480	
14	0	0	0	0	438	12	0	0	0	0	460	
15	0	0	0	0	431	13	0	0	0	0	444	
0	0	0	0	0	395	14	0	0	0	0	471	
1	0	0	0	0	358	15	0	0	0	0	487	
2	0	0	0	0	432	0	0	0	0	0	442	
3	0	0	0	0	435	1	0	0	0	0	488	
4	0	0	0	0	436	2	0	0	0	0	460	
5	0	0	0	0	417	3	0	0	0	0	442	
6	0	0	0	0	435	4	0	0	0	0	461	
7	0	0	0	0	374	5	0	0	0	0	483	
8	0	0	0	0	361	6	0	0	0	0	444	
9	0	0	0	0	433	7	0	0	0	0	493	
10	0	0	0	0	433	8	0	0	0	0	445	
11	0	0	0	0	432	9	0	0	0	0	462	
12	0	0	0	0	432	10	0	0	0	0	504	
13	0	0	0	0	431	11	0	0	0	0	489	
14	0	0	0	0	416	12	0	0	0	0	504	
15	0	0	0	0	421	13	0	0	0	0	499	
0	0	0	0	0	429	14	0	0	0	0	494	
1	0	0	0	0	353	15	0	0	0	0	462	
2	0	0	0	0	433	0	0	0	0	0	494	
3	0	0	0	0	437	1	0	0	0	0	490	
4	0	0	0	0	441	2	0	0	0	0	474	
5	0	0	0	0	415	3	0	0	0	0	462	
6	0	0	0	0	408	4	0	0	0	0	492	
7	0	0	0	0	452	5	0	0	0	0	494	
8	0	0	0	0	445	6	0	0	0	0	455	
9	0	0	0	0	458	7	0	0	0	0	503	
10	0	0	0	0	448	8	0	0	0	0	476	
11	0	0	0	0	458	9	0	0	0	0	500	
12	0	0	0	0	439	10	0	0	0	0	495	
13	0	0	0	0	460	11	0	0	0	0	478	
14	0	0	0	0	385	12	0	0	0	0	456	
15	0	0	0	0	457	13	0	0	0	0	506	
0	0	0	0	0	388	14	0	0	0	0	449	
1	0	0	0	0	377	15	0	0	0	0	472	
2	0	0	0	0	375	0	0	0	0	0	496	
3	0	0	0	0	447	1	0	0	0	0	504	
4	0	0	0	0	451	2	0	0	0	0	487	
5	0	0	0	0	371	3	0	0	0	0	506	
6	0	0	0	0	446	4	0	0	0	0	445	
7	0	0	0	0	414	5	0	0	0	0	486	
8	0	0	0	0	383	6	0	0	0	0	496	
9	0	0	0	0	443	7	0	0	0	0	496	
10	0	0	0	0	400	8	0	0	0	0	464	
11	0	0	0	0	424	9	0	0	0	0	476	
12	0	0	0	0	401	10	0	0	0	0	492	
13	0	0	0	0	365	11	0	0	0	0	496	
14	0	0	0	0	374	12	0	0	0	0	488	
15	0	0	0	0	437	13	0	0	0	0	467	
0	0	0	0	0	386	14	0	0	0	0	494	
1	0	0	0	0	406	15	0	0	0	0	505	
2	0	0	0	0	435	0	0	0	0	0	445	
3	0	0	0	0	431	1	0	0	0	0	447	
4	0	0	0	0	399	2	0	0	0	0	464	
5	0	0	0	0	432	3	0	0	0	0	480	
6	0	0	0	0	433	4	0	0	0	0	465	
7	0	0	0	0	433	5	0	0	0	0	467	
8	0	0	0	0	420	6	0	0	0	0	469	
9	0	0	0	0	361	7	0	0	0	0	490	
10	0	0	0	0	432	8	0	0	0	0	480	
11	0	0	0	0	412	9	0	0	0	0	506	
12	0	0	0	0	383	10	0	0	0	0	455	
13	0	0	0	0	371	11	0	0	0	0	468	
14	0	0	0	0	405	12	0	0	0	0	463	
15	0	0	0	0	428	13	0	0	0	0	458	
0	0	0	0	0	396	14	0	0	0	0	462	
1	0	0	0	0	367	15	0	0	0	0	493	
2	0	0	0	0	403	0	0	0	0	0	504	
3	0	0	0	0	428	1	0	0	0	0	486	
4	0	0	0	0	428	2	0	0	0	0	490	
5	0	0	0	0	425	3	0	0	0	0	499	
6	0	0	0	0	422	4	0	0	0	0	477	
7	0	0	0	0	348	5	0	0	0	0	491	
8	0	0	0	0	350	6	0	0	0	0	490	
9	0	0	0	0	350	7	0	0	0	0	504	
10	0	0	0	0	427	8	0	0	0	0	491	
11	0	0	0	0	375	9	0	0	0	0	503	
12	0	0	0	0	348	10	0	0	0	0	492	
13	0	0	0	0	408	11	0	0	0	0	461	
14	0	0	0	0	382	12	0	0	0	0	503	
15	0	0	0	0	431	13	0	0	0	0	482	
0	0	0	0	0	430	14	0	0	0	0	454	
1	0	0	0	0	389	15	0	0	0	0	493	
2	0	0	0	0	372	0	0	0	0	0	493	
3	0	0	0	0	385	1	0	0	0	0	490	
4	0	0	0	0	454	2	0	0	0	0	481	
5	0	0	0	0	378	3	0	0	0	0	459	
6	0	0	0	0	461	4	0	0	0	0	466	
7	0	0	0	0	383	5	0	0	0	0	446	
8	0	0	0	0	461	6	0	0	0	0	480	
9	0	0	0	0	386	7	0	0	0	0	484	
10	0	0	0	0	384	8	0	0	0	0	460	
11	0	0	0	0	428	9	0	0	0	0	440	
12	0	0	0	0	455	10	0	0	0	0	499	
13	0	0	0	0	458	11	0	0	0	0	491	
14	0	0	0	0	429	12	0	0	0	0	442	
15	0	0	0	0	455	13	0	0	0	0	499	
0	0	0	0	0	377	14	0	0	0	0	482	
1	0	0	0	0	405	15	0	0	0	0	480	
2	0	0	0	0	375	0	0	0	0	0	442	
3	0	0	0	0	371	1	0	0	0	0	501	
4	0	0	0	0	444	2	0	0	0	0	487	
5	0	0	0	0	447	3	0	0	0	0	487	
6	0	0	0	0	372	4	0	0	0	0	500	
7	0	0	0	0	443	5	0	0	0	0	467	
8	0	0	0	0	444	6	0	0	0	0	489	
9	0	0	0	0	438	7	0	0	0	0	497	
10	0	0	0	0	443	8	0	0	0	0	456	
11	0	0	0	0	389	9	0	0	0	0	498	
12	0	0	0	0	390	10	0	0	0	0	460	
13	0	0	0	0	439	11	0	0	0	0	448	
14	0	0	0	0	438	12	0	0	0	0	485	
15	0	0	0	0	437	13	0	0	0	0	479	
0	0	0	0	0	424	14	0	0	0	0	480	
1	0	0	0	0	426	15	0	0	0	0	455	
2	0	0	0	0	437	0	0	0	0	0	487	
3	0	0	0	0	391	1	0	0	0	0	476	
4	0	0	0	0	359	2	0	0	0	0	476	
5	0	0	0	0	435	3	0	0	0	0	492	
6	0	0	0	0	368	4	0	0	0	0	487	
7	0	0	0	0	361	5	0	0	0	0	483	
8	0	0	0	0	439	6	0	0	0	0	436	
9	0	0	0	0	425	7	0	0	0	0	457	
10	0	0	0	0	385	8	0	0	0	0	454	
11	0	0	0	0	410	9	0	0	0	0	482	
12	0	0	0	0	430	10	0	0	0	0	450	
13	0	0	0	0	439	11	0	0	0	0	463	
14	0	0	0	0	438	12	0	0	0	0	484	
15	0	0	0	0	394	13	0	0	0	0	436	
0	0	0	0	0	367	14	0	0	0	0	432	
1	0	0	0	0	407	15	0	0	0	0	439	
2	0	0	0	0	423	0	0	0	0	0	493	
3	0	0	0	0	378	1	0	0	0	0	452	
4	0	0	0	0	369	2	0	0	0	0	447	
5	0	0	0	0	444	3	0	0	0	0	494	
6	0	0	0	0	430	4	0	0	0	0	465	
7	0	0	0	0	396	5	0	0	0	0	451	
8	0	0	0	0	387	6	0	0	0	0	474	
9	0	0	0	0	463	7	0	0	0	0	434	
10	0	0	0	0	458	8	0	0	0	0	487	
11	0	0	0	0	417	9	0	0	0	0	472	
12	0	0	0	0	444	10	0	0	0	0	493	
13	0	0	0	0	464	11	0	0	0	0	464	
14	0	0	0	0	424	12	0	0	0	0	437	
15	0	0	0	0	477	13	0	0	0	0	487	
0	0	0	0	0	479	14	0	0	0	0	483	
1	0	0	0	0	421	15	0	0	0	0	433	
2	0	0	0	0	415	0	0	0	0	0	443	
3	0	0	0	0	481	1	0	0	0	0	450	
4	0	0	0	0	452	2	0	0	0	0	470	
5	0	0	0	0	487	3	0	0	0	0	433	
6	0	0	0	0	423	4	0	0	0	0	482	
7	0	0	0	0	487	5	0	0	0	0	472	
8	0	0	0	0	415	6	0	0	0	0	456	
9	0	0	0	0	434	7	0	0	0	0	481	
10	0	0	0	0	483	8	0	0	0	0	481	
11	0	0	0	0	486	9	0	0	0	0	481	
12	0	0	0	0	470	10	0	0	0	0	483	
13	0	0	0	0	484	11	0	0	0	0	448	
14	0	0	0	0	484	12	0	0	0	0	491	
15	0	0	0	0	481	13	0	0	0	0	464	
0	0	0	0	0	483	14	0	0	0	0	463	
1	0	0	0	0	441	15	0	0	0	0	451	
2	0	0	0	0	465	0	0	0	0	0	448	
3	0	0	0	0	480	1	0	0	0	0	450	
4	0	0	0	0	441	2	0	0	0	0	464	
5	0	0	0	0	476	3	0	0	0	0	439	
6	0	0	0	0	476	4	0	0	0	0	488	
7	0	0	0	0	471	5	0	0	0	0	446	
8	0	0	0	0	478	6	0	0	0	0	457	
9	0	0	0	0	483	7	0	0	0	0	463	
10	0	0	0	0	414	8	0	0	0	0	466	
11	0	0	0	0	492	9	0	0	0	0	450	
12	0	0	0	0	494	10	0	0	0	0	428	
13	0	0	0	0	422	11	0	0	0	0	449	
14	0	0	0	0	497	12	0	0	0	0	428	
15	0	0	0	0	494	13	0	0	0	0	474	
0	0	0	0	0	456	14	0	0	0	0	425	
1	0	0	0	0	485	15	0	0	0	0	450	
2	0	0	0	0	420	0	0	0	0	0	473	
3	0	0	0	0	419	1	0	0	0	0	476	
4	0	0	0	0	418	2	0	0	0	0	424	
5	0	0	0	0	496	3	0	0	0	0	482	
6	0	0	0	0	495	4	0	0	0	0	464	
7	0	0	0	0	494	5	0	0	0	0	460	
8	0	0	0	0	453	6	0	0	0	0	472	
9	0	0	0	0	416	7	0	0	0	0	440	
10	0	0	0	0	481	8	0	0	0	0	458	
11	0	0	0	0	416	9	0	0	0	0	441	
12	0	0	0	0	413	10	0	0	0	0	453	
13	0	0	0	0	481	11	0	0	0	0	481	
14	0	0	0	0	458	12	0	0	0	0	440	
15	0	0	0	0	415	13	0	0	0	0	422	
0	0	0	0	0	421	14	0	0	0	0	442	
1	0	0	0	0	469	15	0	0	0	0	423	
2	0	0	0	0	454	0	0	0	0	0	466	
3	0	0	0	0	480	1	0	0	0	0	474	
4	0	0	0	0	476	2	0	0	0	0	439	
5	0	0	0	0	478	3	0	0	0	0	451	
6	0	0	0	0	473	4	0	0	0	0	478	
7	0	0	0	0	430	5	0	0	0	0	440	
8	0	0	0	0	397	6	0	0	0	0	417	
9	0	0	0	0	396	7	0	0	0	0	467	
10	0	0	0	0	412	8	0	0	0	0	477	
11	0	0	0	0	473	9	0	0	0	0	466	
12	0	0	0	0	428	10	0	0	0	0	416	
13	0	0	0	0	392	11	0	0	0	0	476	
14	0	0	0	0	441	12	0	0	0	0	461	
15	0	0	0	0	391	13	0	0	0	0	472	
0	0	0	0	0	441	14	0	0	0	0	465	
1	0	0	0	0	405	15	0	0	0	0	473	
2	0	0	0	0	467	0	0	0	0	0	464	
3	0	0	0	0	465	1	0	0	0	0	474	
4	0	0	0	0	396	2	0	0	0	0	425	
5	0	0	0	0	465	3	0	0	0	0	430	
6	0	0	0	0	387	4	0	0	0	0	463	
7	0	0	0	0	441	5	0	0	0	0	412	
8	0	0	0	0	416	6	0	0	0	0	472	
9	0	0	0	0	389	7	0	0	0	0	439	
10	0	0	0	0	383	8	0	0	0	0	472	
11	0	0	0	0	417	9	0	0	0	0	462	
12	0	0	0	0	452	10	0	0	0	0	463	
13	0	0	0	0	421	11	0	0	0	0	429	
14	0	0	0	0	456	12	0	0	0	0	422	
15	0	0	0	0	420	13	0	0	0	0	469	
0	0	0	0	0	456	14	0	0	0	0	461	
1	0	0	0	0	384	15	0	0	0	0	459	
2	0	0	0	0	435	0	0	0	0	0	427	
3	0	0	0	0	455	1	0	0	0	0	457	
4	0	0	0	0	415	2	0	0	0	0	458	
5	0	0	0	0	450	3	0	0	0	0	457	
6	0	0	0	0	375	4	0	0	0	0	448	
7	0	0	0	0	444	5	0	0	0	0	457	
8	0	0	0	0	447	6	0	0	0	0	466	
9	0	0	0	0	449	7	0	0	0	0	448	
10	0	0	0	0	454	8	0	0	0	0	414	
11	0	0	0	0	426	9	0	0	0	0	423	
12	0	0	0	0	402	10	0	0	0	0	427	
13	0	0	0	0	408	11	0	0	0	0	412	
14	0	0	0	0	456	12	0	0	0	0	462	
15	0	0	0	0	400	13	0	0	0	0	432	
0	0	0	0	0	386	14	0	0	0	0	464	
1	0	0	0	0	455	15	0	0	0	0	431	
2	0	0	0	0	375	0	0	0	0	0	462	
3	0	0	0	0	443	1	0	0	0	0	424	
4	0	0	0	0	451	2	0	0	0	0	454	
5	0	0	0	0	398	3	0	0	0	0	440	
6	0	0	0	0	448	4	0	0	0	0	405	
7	0	0	0	0	376	5	0	0	0	0	449	
8	0	0	0	0	442	6	0	0	0	0	421	
9	0	0	0	0	417	7	0	0	0	0	406	
10	0	0	0	0	368	8	0	0	0	0	461	
11	0	0	0	0	363	9	0	0	0	0	404	
12	0	0	0	0	440	10	0	0	0	0	420	
13	0	0	0	0	383	11	0	0	0	0	427	
14	0	0	0	0	396	12	0	0	0	0	420	
15	0	0	0	0	360	13	0	0	0	0	401	
0	0	0	0	0	439	14	0	0	0	0	421	
1	0	0	0	0	361	15	0	0	0	0	423	
2	0	0	0	0	408	0	0	0	0	0	400	
3	0	0	0	0	423	1	0	0	0	0	457	
4	0	0	0	0	423	2	0	0	0	0	428	
5	0	0	0	0	424	3	0	0	0	0	455	
6	0	0	0	0	414	4	0	0	0	0	452	
7	0	0	0	0	385	5	0	0	0	0	446	
8	0	0	0	0	416	6	0	0	0	0	400	
9	0	0	0	0	382	7	0	0	0	0	447	
10	0	0	0	0	431	8	0	0	0	0	419	
11	0	0	0	0	367	9	0	0	0	0	447	
12	0	0	0	0	395	10	0	0	0	0	414	
13	0	0	0	0	431	11	0	0	0	0	456	
14	0	0	0	0	369	12	0	0	0	0	401	
15	0	0	0	0	371	13	0	0	0	0	455	
0	0	0	0	0	361	14	0	0	0	0	404	
1	0	0	0	0	415	15	0	0	0	0	441	
2	0	0	0	0	427	0	0	0	0	0	420	
3	0	0	0	0	399	1	0	0	0	0	438	
4	0	0	0	0	352	2	0	0	0	0	411	
5	0	0	0	0	383	3	0	0	0	0	396	
6	0	0	0	0	423	4	0	0	0	0	442	
7	0	0	0	0	423	5	0	0	0	0	394	
8	0	0	0	0	343	6	0	0	0	0	403	
9	0	0	0	0	412	7	0	0	0	0	451	
10	0	0	0	0	344	8	0	0	0	0	410	
11	0	0	0	0	348	9	0	0	0	0	396	
12	0	0	0	0	342	10	0	0	0	0	403	
13	0	0	0	0	421	11	0	0	0	0	422	
14	0	0	0	0	350	12	0	0	0	0	447	
15	0	0	0	0	391	13	0	0	0	0	434	
0	0	0	0	0	420	14	0	0	0	0	406	
1	0	0	0	0	341	15	0	0	0	0	449	
2	0	0	0	0	340	0	0	0	0	0	448	
3	0	0	0	0	339	1	0	0	0	0	439	
4	0	0	0	0	417	2	0	0	0	0	448	
5	0	0	0	0	401	3	0	0	0	0	446	
6	0	0	0	0	375	4	0	0	0	0	405	
7	0	0	0	0	357	5	0	0	0	0	405	
8	0	0	0	0	414	6	0	0	0	0	415	
9	0	0	0	0	398	7	0	0	0	0	409	
10	0	0	0	0	344	8	0	0	0	0	420	
11	0	0	0	0	338	9	0	0	0	0	442	
12	0	0	0	0	331	10	0	0	0	0	405	
13	0	0	0	0	382	11	0	0	0	0	440	
14	0	0	0	0	408	12	0	0	0	0	416	
15	0	0	0	0	357	13	0	0	0	0	433	
0	0	0	0	0	371	14	0	0	0	0	432	
1	0	0	0	0	383	15	0	0	0	0	433	
2	0	0	0	0	406	0	0	0	0	0	431	
3	0	0	0	0	405	1	0	0	0	0	400	
4	0	0	0	0	395	2	0	0	0	0	441	
5	0	0	0	0	328	3	0	0	0	0	441	
6	0	0	0	0	384	4	0	0	0	0	403	
7	0	0	0	0	399	5	0	0	0	0	430	
8	0	0	0	0	366	6	0	0	0	0	410	
9	0	0	0	0	361	7	0	0	0	0	380	
10	0	0	0	0	400	8	0	0	0	0	438	
11	0	0	0	0	394	9	0	0	0	0	403	
12	0	0	0	0	369	10	0	0	0	0	397	
13	0	0	0	0	385	11	0	0	0	0	423	
14	0	0	0	0	397	12	0	0	0	0	397	
15	0	0	0	0	396	13	0	0	0	0	427	
0	0	0	0	0	323	14	0	0	0	0	376	
1	0	0	0	0	375	15	0	0	0	0	394	
2	0	0	0	0	376	0	0	0	0	0	396	
3	0	0	0	0	324	1	0	0	0	0	376	
4	0	0	0	0	318	2	0	0	0	0	418	
5	0	0	0	0	316	3	0	0	0	0	411	
6	0	0	0	0	376	4	0	0	0	0	422	
7	0	0	0	0	388	5	0	0	0	0	410	
8	0	0	0	0	315	6	0	0	0	0	396	
9	0	0	0	0	324	7	0	0	0	0	384	
10	0	0	0	0	390	8	0	0	0	0	379	
11	0	0	0	0	361	9	0	0	0	0	393	
12	0	0	0	0	311	10	0	0	0	0	399	
13	0	0	0	0	308	11	0	0	0	0	431	
14	0	0	0	0	308	12	0	0	0	0	405	
15	0	0	0	0	318	13	0	0	0	0	421	
0	0	0	0	0	341	14	0	0	0	0	432	
1	0	0	0	0	378	15	0	0	0	0	420	
2	0	0	0	0	385	0	0	0	0	0	430	
3	0	0	0	0	305	1	0	0	0	0	412	
4	0	0	0	0	371	2	0	0	0	0	369	
5	0	0	0	0	318	3	0	0	0	0	386	
6	0	0	0	0	383	4	0	0	0	0	405	
7	0	0	0	0	380	5	0	0	0	0	372	
8	0	0	0	0	332	6	0	0	0	0	403	
9	0	0	0	0	376	7	0	0	0	0	428	
10	0	0	0	0	322	8	0	0	0	0	395	
11	0	0	0	0	381	9	0	0	0	0	416	
12	0	0	0	0	362	10	0	0	0	0	366	
13	0	0	0	0	318	11	0	0	0	0	419	
14	0	0	0	0	357	12	0	0	0	0	415	
15	0	0	0	0	365	13	0	0	0	0	418	
0	0	0	0	0	376	14	0	0	0	0	378	
1	0	0	0	0	359	15	0	0	0	0	423	
2	0	0	0	0	301	0	0	0	0	0	382	
3	0	0	0	0	368	1	0	0	0	0	416	
4	0	0	0	0	327	2	0	0	0	0	381	
5	0	0	0	0	307	3	0	0	0	0	412	
6	0	0	0	0	374	4	0	0	0	0	378	
7	0	0	0	0	295	5	0	0	0	0	365	
8	0	0	0	0	366	6	0	0	0	0	361	
9	0	0	0	0	293	7	0	0	0	0	363	
10	0	0	0	0	361	8	0	0	0	0	422	
11	0	0	0	0	368	9	0	0	0	0	421	
12	0	0	0	0	320	10	0	0	0	0	395	
13	0	0	0	0	353	11	0	0	0	0	409	
14	0	0	0	0	369	12	0	0	0	0	363	
15	0	0	0	0	290	13	0	0	0	0	384	
0	0	0	0	0	362	14	0	0	0	0	408	
1	0	0	0	0	369	15	0	0	0	0	376	
2	0	0	0	0	347	0	0	0	0	0	415	
3	0	0	0	0	366	1	0	0	0	0	366	
4	0	0	0	0	359	2	0	0	0	0	417	
5	0	0	0	0	298	3	0	0	0	0	378	
6	0	0	0	0	365	4	0	0	0	0	395	
7	0	0	0	0	286	5	0	0	0	0	406	
8	0	0	0	0	349	6	0	0	0	0	373	
9	0	0	0	0	286	7	0	0	0	0	399	
10	0	0	0	0	328	8	0	0	0	0	358	
11	0	0	0	0	363	9	0	0	0	0	358	
12	0	0	0	0	363	10	0	0	0	0	356	
13	0	0	0	0	363	11	0	0	0	0	352	
14	0	0	0	0	356	12	0	0	0	0	371	
15	0	0	0	0	352	13	0	0	0	0	363	
0	0	0	0	0	283	14	0	0	0	0	400	
1	0	0	0	0	360	15	0	0	0	0	414	
2	0	0	0	0	282	0	0	0	0	0	380	
3	0	0	0	0	311	1	0	0	0	0	353	
4	0	0	0	0	356	2	0	0	0	0	370	
5	0	0	0	0	335	3	0	0	0	0	390	
6	0	0	0	0	358	4	0	0	0	0	353	
7	0	0	0	0	356	5	0	0	0	0	411	
8	0	0	0	0	339	6	0	0	0	0	371	
9	0	0	0	0	318	7	0	0	0	0	395	
10	0	0	0	0	318	8	0	0	0	0	397	
11	0	0	0	0	310	9	0	0	0	0	377	
12	0	0	0	0	355	10	0	0	0	0	367	
13	0	0	0	0	352	11	0	0	0	0	398	
14	0	0	0	0	347	12	0	0	0	0	398	
15	0	0	0	0	275	13	0	0	0	0	382	
0	0	0	0	0	336	14	0	0	0	0	382	
1	0	0	0	0	351	15	0	0	0	0	348	
2	0	0	0	0	312	0	0	0	0	0	364	
3	0	0	0	0	319	1	0	0	0	0	346	
4	0	0	0	0	352	2	0	0	0	0	363	
5	0	0	0	0	334	3	0	0	0	0	363	
6	0	0	0	0	272	4	0	0	0	0	356	
7	0	0	0	0	272	5	0	0	0	0	366	
8	0	0	0	0	278	6	0	0	0	0	393	
9	0	0	0	0	281	7	0	0	0	0	392	
10	0	0	0	0	326	8	0	0	0	0	403	
11	0	0	0	0	303	9	0	0	0	0	391	
12	0	0	0	0	346	10	0	0	0	0	345	
13	0	0	0	0	273	11	0	0	0	0	344	
14	0	0	0	0	347	12	0	0	0	0	382	
15	0	0	0	0	343	13	0	0	0	0	391	
0	0	0	0	0	268	14	0	0	0	0	342	
1	0	0	0	0	271	15	0	0	0	0	340	
2	0	0	0	0	335	0	0	0	0	0	362	
3	0	0	0	0	337	1	0	0	0	0	400	
4	0	0	0	0	343	2	0	0	0	0	357	
5	0	0	0	0	345	3	0	0	0	0	392	
6	0	0	0	0	323	4	0	0	0	0	342	
7	0	0	0	0	345	5	0	0	0	0	392	
8	0	0	0	0	345	6	0	0	0	0	388	
9	0	0	0	0	345	7	0	0	0	0	357	
10	0	0	0	0	340	8	0	0	0	0	367	
11	0	0	0	0	327	9	0	0	0	0	387	
12	0	0	0	0	321	10	0	0	0	0	398	
13	0	0	0	0	344	11	0	0	0	0	355	
14	0	0	0	0	341	12	0	0	0	0	386	
15	0	0	0	0	344	13	0	0	0	0	372	
0	0	0	0	0	269	14	0	0	0	0	339	
1	0	0	0	0	282	15	0	0	0	0	396	
2	0	0	0	0	341	0	0	0	0	0	384	
3	0	0	0	0	343	1	0	0	0	0	395	
4	0	0	0	0	274	2	0	0	0	0	358	
5	0	0	0	0	333	3	0	0	0	0	376	
6	0	0	0	0	263	4	0	0	0	0	395	
7	0	0	0	0	281	5	0	0	0	0	384	
8	0	0	0	0	341	6	0	0	0	0	377	
9	0	0	0	0	280	7	0	0	0	0	331	
10	0	0	0	0	313	8	0	0	0	0	392	
11	0	0	0	0	339	9	0	0	0	0	352	
12	0	0	0	0	266	10	0	0	0	0	351	
13	0	0	0	0	300	11	0	0	0	0	333	
14	0	0	0	0	338	12	0	0	0	0	353	
15	0	0	0	0	338	13	0	0	0	0	386	
0	0	0	0	0	259	14	0	0	0	0	347	
1	0	0	0	0	334	15	0	0	0	0	334	
2	0	0	0	0	259	0	0	0	0	0	390	
3	0	0	0	0	259	1	0	0	0	0	348	
4	0	0	0	0	302	2	0	0	0	0	377	
5	0	0	0	0	341	3	0	0	0	0	377	
6	0	0	0	0	335	4	0	0	0	0	347	
7	0	0	0	0	345	5	0	0	0	0	360	
8	0	0	0	0	284	6	0	0	0	0	388	
9	0	0	0	0	303	7	0	0	0	0	371	
10	0	0	0	0	334	8	0	0	0	0	384	
11	0	0	0	0	348	9	0	0	0	0	388	
12	0	0	0	0	356	10	0	0	0	0	368	
13	0	0	0	0	349	11	0	0	0	0	355	
14	0	0	0	0	317	12	0	0	0	0	377	
15	0	0	0	0	280	13	0	0	0	0	391	
0	0	0	0	0	282	14	0	0	0	0	350	
1	0	0	0	0	362	15	0	0	0	0	380	
2	0	0	0	0	286	0	0	0	0	0	356	
3	0	0	0	0	330	1	0	0	0	0	356	
4	0	0	0	0	348	2	0	0	0	0	331	
5	0	0	0	0	364	3	0	0	0	0	377	
6	0	0	0	0	314	4	0	0	0	0	351	
7	0	0	0	0	364	5	0	0	0	0	381	
8	0	0	0	0	287	6	0	0	0	0	383	
9	0	0	0	0	359	7	0	0	0	0	383	
10	0	0	0	0	287	8	0	0	0	0	344	
11	0	0	0	0	289	9	0	0	0	0	359	
12	0	0	0	0	343	10	0	0	0	0	334	
13	0	0	0	0	313	11	0	0	0	0	352	
14	0	0	0	0	367	12	0	0	0	0	391	
15	0	0	0	0	333	13	0	0	0	0	335	
0	0	0	0	0	367	14	0	0	0	0	351	
1	0	0	0	0	287	15	0	0	0	0	340	
2	0	0	0	0	367	0	0	0	0	0	351	
3	0	0	0	0	306	1	0	0	0	0	382	
4	0	0	0	0	303	2	0	0	0	0	373	
5	0	0	0	0	366	3	0	0	0	0	384	
6	0	0	0	0	357	4	0	0	0	0	354	
7	0	0	0	0	366	5	0	0	0	0	381	
8	0	0	0	0	291	6	0	0	0	0	389	
9	0	0	0	0	328	7	0	0	0	0	369	
10	0	0	0	0	366	8	0	0	0	0	392	
11	0	0	0	0	306	9	0	0	0	0	383	
12	0	0	0	0	365	10	0	0	0	0	382	
13	0	0	0	0	324	11	0	0	0	0	366	
14	0	0	0	0	365	12	0	0	0	0	383	
15	0	0	0	0	285	13	0	0	0	0	383	
0	0	0	0	0	304	14	0	0	0	0	377	
1	0	0	0	0	311	15	0	0	0	0	359	
2	0	0	0	0	349	0	0	0	0	0	393	
3	0	0	0	0	348	1	0	0	0	0	359	
4	0	0	0	0	363	2	0	0	0	0	383	
5	0	0	0	0	322	3	0	0	0	0	392	
6	0	0	0	0	356	4	0	0	0	0	351	
7	0	0	0	0	364	5	0	0	0	0	369	
8	0	0	0	0	336	6	0	0	0	0	383	
9	0	0	0	0	330	7	0	0	0	0	387	
10	0	0	0	0	363	8	0	0	0	0	377	
11	0	0	0	0	346	9	0	0	0	0	372	
12	0	0	0	0	285	10	0	0	0	0	383	
13	0	0	0	0	362	11	0	0	0	0	391	
14	0	0	0	0	316	12	0	0	0	0	352	
15	0	0	0	0	286	13	0	0	0	0	383	
0	0	0	0	0	334	14	0	0	0	0	389	
1	0	0	0	0	361	15	0	0	0	0	392	
2	0	0	0	0	359	0	0	0	0	0	380	
3	0	0	0	0	349	1	0	0	0	0	363	
4	0	0	0	0	280	2	0	0	0	0	393	
5	0	0	0	0	355	3	0	0	0	0	382	
6	0	0	0	0	310	4	0	0	0	0	335	
7	0	0	0	0	307	5	0	0	0	0	347	
8	0	0	0	0	285	6	0	0	0	0	383	
9	0	0	0	0	359	7	0	0	0	0	365	
10	0	0	0	0	315	8	0	0	0	0	382	
11	0	0	0	0	280	9	0	0	0	0	386	
12	0	0	0	0	355	10	0	0	0	0	352	
13	0	0	0	0	278	11	0	0	0	0	381	
14	0	0	0	0	353	12	0	0	0	0	382	
15	0	0	0	0	357	13	0	0	0	0	387	
0	0	0	0	0	279	14	0	0	0	0	377	
1	0	0	0	0	305	15	0	0	0	0	344	
2	0	0	0	0	356	0	0	0	0	0	351	
3	0	0	0	0	348	1	0	0	0	0	382	
4	0	0	0	0	276	2	0	0	0	0	332	
5	0	0	0	0	350	3	0	0	0	0	391	
6	0	0	0	0	312	4	0	0	0	0	361	
7	0	0	0	0	353	5	0	0	0	0	379	
8	0	0	0	0	348	6	0	0	0	0	391	
9	0	0	0	0	349	7	0	0	0	0	350	
10	0	0	0	0	301	8	0	0	0	0	382	
11	0	0	0	0	352	9	0	0	0	0	380	
12	0	0	0	0	273	10	0	0	0	0	368	
13	0	0	0	0	322	11	0	0	0	0	332	
14	0	0	0	0	352	12	0	0	0	0	358	
15	0	0	0	0	334	13	0	0	0	0	355	
0	0	0	0	0	283	14	0	0	0	0	381	
1	0	0	0	0	272	15	0	0	0	0	348	
2	0	0	0	0	350	0	0	0	0	0	368	
3	0	0	0	0	281	1	0	0	0	0	347	
4	0	0	0	0	350	2	0	0	0	0	376	
5	0	0	0	0	343	3	0	0	0	0	332	
6	0	0	0	0	349	4	0	0	0	0	391	
7	0	0	0	0	273	5	0	0	0	0	332	
8	0	0	0	0	347	6	0	0	0	0	349	
9	0	0	0	0	348	7	0	0	0	0	349	
10	0	0	0	0	317	8	0	0	0	0	348	
11	0	0	0	0	347	9	0	0	0	0	375	
12	0	0	0	0	291	10	0	0	0	0	334	
13	0	0	0	0	294	11	0	0	0	0	381	
14	0	0	0	0	342	12	0	0	0	0	380	
15	0	0	0	0	267	13	0	0	0	0	331	
0	0	0	0	0	268	14	0	0	0	0	386	
1	0	0	0	0	269	15	0	0	0	0	335	
2	0	0	0	0	324	0	0	0	0	0	390	
3	0	0	0	0	337	1	0	0	0	0	348	
4	0	0	0	0	332	2	0	0	0	0	335	
5	0	0	0	0	339	3	0	0	0	0	334	
6	0	0	0	0	331	4	0	0	0	0	329	
7	0	0	0	0	263	5	0	0	0	0	330	
8	0	0	0	0	307	6	0	0	0	0	332	
9	0	0	0	0	312	7	0	0	0	0	331	
10	0	0	0	0	268	8	0	0	0	0	364	
11	0	0	0	0	340	9	0	0	0	0	389	
12	0	0	0	0	329	10	0	0	0	0	365	
13	0	0	0	0	273	11	0	0	0	0	352	
14	0	0	0	0	260	12	0	0	0	0	378	
15	0	0	0	0	339	13	0	0	0	0	341	
0	0	0	0	0	336	14	0	0	0	0	336	
1	0	0	0	0	325	15	0	0	0	0	371	
2	0	0	0	0	259	0	0	0	0	0	387	
3	0	0	0	0	312	1	0	0	0	0	388	
4	0	0	0	0	331	2	0	0	0	0	387	
5	0	0	0	0	336	3	0	0	0	0	387	
6	0	0	0	0	291	4	0	0	0	0	377	
7	0	0	0	0	257	5	0	0	0	0	350	
8	0	0	0	0	257	6	0	0	0	0	353	
9	0	0	0	0	281	7	0	0	0	0	347	
10	0	0	0	0	329	8	0	0	0	0	369	
11	0	0	0	0	324	9	0	0	0	0	385	
12	0	0	0	0	334	10	0	0	0	0	375	
13	0	0	0	0	258	11	0	0	0	0	379	
14	0	0	0	0	306	12	0	0	0	0	350	
15	0	0	0	0	263	13	0	0	0	0	328	
0	0	0	0	0	253	14	0	0	0	0	327	
1	0	0	0	0	333	15	0	0	0	0	385	
2	0	0	0	0	331	0	0	0	0	0	328	
3	0	0	0	0	332	1	0	0	0	0	343	
4	0	0	0	0	332	2	0	0	0	0	376	
5	0	0	0	0	331	3	0	0	0	0	386	
6	0	0	0	0	292	4	0	0	0	0	343	
7	0	0	0	0	313	5	0	0	0	0	343	
8	0	0	0	0	331	6	0	0	0	0	349	
9	0	0	0	0	253	7	0	0	0	0	343	
10	0	0	0	0	331	8	0	0	0	0	374	
11	0	0	0	0	327	9	0	0	0	0	376	
12	0	0	0	0	317	10	0	0	0	0	329	
13	0	0	0	0	280	11	0	0	0	0	354	
14	0	0	0	0	329	12	0	0	0	0	344	
15	0	0	0	0	265	13	0	0	0	0	383	
0	0	0	0	0	322	14	0	0	0	0	351	
1	0	0	0	0	256	15	0	0	0	0	323	
2	0	0	0	0	322	0	0	0	0	0	325	
3	0	0	0	0	278	1	0	0	0	0	370	
4	0	0	0	0	251	2	0	0	0	0	330	
5	0	0	0	0	326	3	0	0	0	0	363	
6	0	0	0	0	309	4	0	0	0	0	347	
7	0	0	0	0	284	5	0	0	0	0	371	
8	0	0	0	0	248	6	0	0	0	0	373	
9	0	0	0	0	314	7	0	0	0	0	348	
10	0	0	0	0	324	8	0	0	0	0	380	
11	0	0	0	0	250	9	0	0	0	0	372	
12	0	0	0	0	310	10	0	0	0	0	362	
13	0	0	0	0	321	11	0	0	0	0	348	
14	0	0	0	0	281	12	0	0	0	0	341	
15	0	0	0	0	325	13	0	0	0	0	372	
0	0	0	0	0	326	14	0	0	0	0	352	
1	0	0	0	0	247	15	0	0	0	0	323	
2	0	0	0	0	260	0	0	0	0	0	345	
3	0	0	0	0	285	1	0	0	0	0	352	
4	0	0	0	0	328	2	0	0	0	0	360	
5	0	0	0	0	322	3	0	0	0	0	322	
6	0	0	0	0	272	4	0	0	0	0	324	
7	0	0	0	0	280	5	0	0	0	0	358	
8	0	0	0	0	258	6	0	0	0	0	320	
9	0	0	0	0	331	7	0	0	0	0	380	
10	0	0	0	0	255	8	0	0	0	0	340	
11	0	0	0	0	297	9	0	0	0	0	342	
12	0	0	0	0	329	10	0	0	0	0	371	
13	0	0	0	0	332	11	0	0	0	0	368	
14	0	0	0	0	278	12	0	0	0	0	345	
15	0	0	0	0	334	13	0	0	0	0	370	
0	0	0	0	0	336	14	0	0	0	0	370	
1	0	0	0	0	273	15	0	0	0	0	361	
2	0	0	0	0	271	0	0	0	0	0	364	
3	0	0	0	0	337	1	0	0	0	0	323	
4	0	0	0	0	279	2	0	0	0	0	346	
5	0	0	0	0	337	3	0	0	0	0	340	
6	0	0	0	0	339	4	0	0	0	0	355	
7	0	0	0	0	259	5	0	0	0	0	376	
8	0	0	0	0	327	6	0	0	0	0	322	
9	0	0	0	0	262	7	0	0	0	0	378	
10	0	0	0	0	259	8	0	0	0	0	327	
11	0	0	0	0	259	9	0	0	0	0	331	
12	0	0	0	0	338	10	0	0	0	0	326	
13	0	0	0	0	337	11	0	0	0	0	360	
14	0	0	0	0	295	12	0	0	0	0	336	
15	0	0	0	0	337	13	0	0	0	0	345	
0	0	0	0	0	276	14	0	0	0	0	377	
1	0	0	0	0	337	15	0	0	0	0	336	
2	0	0	0	0	258	0	0	0	0	0	346	
3	0	0	0	0	315	1	0	0	0	0	350	
4	0	0	0	0	276	2	0	0	0	0	337	
5	0	0	0	0	335	3	0	0	0	0	334	
6	0	0	0	0	331	4	0	0	0	0	335	
7	0	0	0	0	313	5	0	0	0	0	352	
8	0	0	0	0	329	6	0	0	0	0	366	
9	0	0	0	0	322	7	0	0	0	0	367	
10	0	0	0	0	331	8	0	0	0	0	367	
11	0	0	0	0	318	9	0	0	0	0	339	
12	0	0	0	0	291	10	0	0	0	0	366	
13	0	0	0	0	333	11	0	0	0	0	319	
14	0	0	0	0	330	12	0	0	0	0	316	
15	0	0	0	0	254	13	0	0	0	0	327	
0	0	0	0	0	332	14	0	0	0	0	366	
1	0	0	0	0	255	15	0	0	0	0	318	
2	0	0	0	0	294	0	0	0	0	0	342	
3	0	0	0	0	325	1	0	0	0	0	315	
4	0	0	0	0	328	2	0	0	0	0	313	
5	0	0	0	0	275	3	0	0	0	0	331	
6	0	0	0	0	331	4	0	0	0	0	368	
7	0	0	0	0	329	5	0	0	0	0	374	
8	0	0	0	0	311	6	0	0	0	0	335	
9	0	0	0	0	251	7	0	0	0	0	353	
10	0	0	0	0	317	8	0	0	0	0	359	
11	0	0	0	0	289	9	0	0	0	0	363	
12	0	0	0	0	329	10	0	0	0	0	315	
13	0	0	0	0	262	11	0	0	0	0	362	
14	0	0	0	0	257	12	0	0	0	0	335	
15	0	0	0	0	328	13	0	0	0	0	352	
0	0	0	0	0	323	14	0	0	0	0	353	
1	0	0	0	0	286	15	0	0	0	0	363	
2	0	0	0	0	248	0	0	0	0	0	336	
3	0	0	0	0	288	1	0	0	0	0	314	
4	0	0	0	0	300	2	0	0	0	0	371	
5	0	0	0	0	327	3	0	0	0	0	323	
6	0	0	0	0	248	4	0	0	0	0	314	
7	0	0	0	0	324	5	0	0	0	0	367	
8	0	0	0	0	257	6	0	0	0	0	347	
9	0	0	0	0	311	7	0	0	0	0	353	
10	0	0	0	0	311	8	0	0	0	0	371	
11	0	0	0	0	264	9	0	0	0	0	343	
12	0	0	0	0	248	10	0	0	0	0	361	
13	0	0	0	0	325	11	0	0	0	0	348	
14	0	0	0	0	325	12	0	0	0	0	311	
15	0	0	0	0	324	13	0	0	0	0	368	
0	0	0	0	0	324	14	0	0	0	0	345	
1	0	0	0	0	324	15	0	0	0	0	310	
2	0	0	0	0	313	0	0	0	0	0	366	
3	0	0	0	0	307	1	0	0	0	0	332	
4	0	0	0	0	321	2	0	0	0	0	358	
5	0	0	0	0	316	3	0	0	0	0	359	
6	0	0	0	0	322	4	0	0	0	0	357	
7	0	0	0	0	282	5	0	0	0	0	314	
8	0	0	0	0	289	6	0	0	0	0	351	
9	0	0	0	0	244	7	0	0	0	0	329	
10	0	0	0	0	321	8	0	0	0	0	356	
11	0	0	0	0	262	9	0	0	0	0	344	
12	0	0	0	0	269	10	0	0	0	0	318	
13	0	0	0	0	299	11	0	0	0	0	339	
14	0	0	0	0	323	12	0	0	0	0	362	
15	0	0	0	0	322	13	0	0	0	0	326	
0	0	0	0	0	322	14	0	0	0	0	327	
1	0	0	0	0	322	15	0	0	0	0	332	
2	0	0	0	0	315	0	0	0	0	0	359	
3	0	0	0	0	277	1	0	0	0	0	312	
4	0	0	0	0	319	2	0	0	0	0	363	
5	0	0	0	0	275	3	0	0	0	0	335	
6	0	0	0	0	244	4	0	0	0	0	306	
7	0	0	0	0	321	5	0	0	0	0	365	
8	0	0	0	0	263	6	0	0	0	0	325	
9	0	0	0	0	256	7	0	0	0	0	311	
10	0	0	0	0	248	8	0	0	0	0	335	
11	0	0	0	0	320	9	0	0	0	0	358	
12	0	0	0	0	254	10	0	0	0	0	327	
13	0	0	0	0	253	11	0	0	0	0	349	
14	0	0	0	0	268	12	0	0	0	0	326	
15	0	0	0	0	255	13	0	0	0	0	329	
0	0	0	0	0	247	14	0	0	0	0	324	
1	0	0	0	0	328	15	0	0	0	0	356	
2	0	0	0	0	328	0	0	0	0	0	364	
3	0	0	0	0	302	1	0	0	0	0	324	
4	0	0	0	0	313	2	0	0	0	0	356	
5	0	0	0	0	308	3	0	0	0	0	367	
6	0	0	0	0	308	4	0	0	0	0	367	
7	0	0	0	0	345	5	0	0	0	0	323	
8	0	0	0	0	268	6	0	0	0	0	355	
9	0	0	0	0	332	7	0	0	0	0	322	
10	0	0	0	0	301	8	0	0	0	0	352	
11	0	0	0	0	302	9	0	0	0	0	334	
12	0	0	0	0	358	10	0	0	0	0	355	
13	0	0	0	0	318	11	0	0	0	0	305	
14	0	0	0	0	287	12	0	0	0	0	358	
15	0	0	0	0	317	13	0	0	0	0	336	
0	0	0	0	0	360	14	0	0	0	0	306	
1	0	0	0	0	359	15	0	0	0	0	323	
2	0	0	0	0	328	0	0	0	0	0	353	
3	0	0	0	0	359	1	0	0	0	0	359	
4	0	0	0	0	350	2	0	0	0	0	353	
5	0	0	0	0	351	3	0	0	0	0	353	
6	0	0	0	0	334	4	0	0	0	0	321	
7	0	0	0	0	349	5	0	0	0	0	362	
8	0	0	0	0	334	6	0	0	0	0	317	
9	0	0	0	0	318	7	0	0	0	0	360	
10	0	0	0	0	357	8	0	0	0	0	356	
11	0	0	0	0	277	9	0	0	0	0	352	
12	0	0	0	0	340	10	0	0	0	0	320	
13	0	0	0	0	356	11	0	0	0	0	339	
14	0	0	0	0	354	12	0	0	0	0	352	
15	0	0	0	0	281	13	0	0	0	0	302	
0	0	0	0	0	355	14	0	0	0	0	302	
1	0	0	0	0	319	15	0	0	0	0	302	
2	0	0	0	0	275	0	0	0	0	0	325	
3	0	0	0	0	302	1	0	0	0	0	355	
4	0	0	0	0	277	2	0	0	0	0	307	
5	0	0	0	0	274	3	0	0	0	0	343	
6	0	0	0	0	349	4	0	0	0	0	347	
7	0	0	0	0	351	5	0	0	0	0	326	
8	0	0	0	0	338	6	0	0	0	0	359	
9	0	0	0	0	352	7	0	0	0	0	333	
10	0	0	0	0	352	8	0	0	0	0	317	
11	0	0	0	0	273	9	0	0	0	0	318	
12	0	0	0	0	351	10	0	0	0	0	297	
13	0	0	0	0	291	11	0	0	0	0	350	
14	0	0	0	0	271	12	0	0	0	0	334	
15	0	0	0	0	304	13	0	0	0	0	354	
0	0	0	0	0	349	14	0	0	0	0	317	
1	0	0	0	0	323	15	0	0	0	0	309	
2	0	0	0	0	345	0	0	0	0	0	359	
3	0	0	0	0	349	1	0	0	0	0	300	
4	0	0	0	0	345	2	0	0	0	0	357	
5	0	0	0	0	276	3	0	0	0	0	348	
6	0	0	0	0	287	4	0	0	0	0	295	
7	0	0	0	0	345	5	0	0	0	0	317	
8	0	0	0	0	288	6	0	0	0	0	346	
9	0	0	0	0	337	7	0	0	0	0	295	
10	0	0	0	0	338	8	0	0	0	0	358	
11	0	0	0	0	347	9	0	0	0	0	315	
12	0	0	0	0	347	10	0	0	0	0	315	
13	0	0	0	0	267	11	0	0	0	0	333	
14	0	0	0	0	339	12	0	0	0	0	311	
15	0	0	0	0	346	13	0	0	0	0	347	
0	0	0	0	0	267	14	0	0	0	0	346	
1	0	0	0	0	325	15	0	0	0	0	297	
2	0	0	0	0	282	0	0	0	0	0	355	
3	0	0	0	0	274	1	0	0	0	0	336	
4	0	0	0	0	343	2	0	0	0	0	351	
5	0	0	0	0	337	3	0	0	0	0	356	
6	0	0	0	0	313	4	0	0	0	0	354	
7	0	0	0	0	299	5	0	0	0	0	312	
8	0	0	0	0	316	6	0	0	0	0	337	
9	0	0	0	0	329	7	0	0	0	0	331	
10	0	0	0	0	321	8	0	0	0	0	316	
11	0	0	0	0	311	9	0	0	0	0	295	
12	0	0	0	0	341	10	0	0	0	0	315	
13	0	0	0	0	321	11	0	0	0	0	316	
14	0	0	0	0	264	12	0	0	0	0	294	
15	0	0	0	0	319	13	0	0	0	0	353	
0	0	0	0	0	262	14	0	0	0	0	342	
1	0	0	0	0	261	15	0	0	0	0	312	
2	0	0	0	0	261	0	0	0	0	0	337	
3	0	0	0	0	273	1	0	0	0	0	349	
4	0	0	0	0	325	2	0	0	0	0	343	
5	0	0	0	0	339	3	0	0	0	0	352	
6	0	0	0	0	332	4	0	0	0	0	306	
7	0	0	0	0	331	5	0	0	0	0	344	
8	0	0	0	0	269	6	0	0	0	0	311	
9	0	0	0	0	338	7	0	0	0	0	342	
10	0	0	0	0	268	8	0	0	0	0	353	
11	0	0	0	0	299	9	0	0	0	0	342	
12	0	0	0	0	317	10	0	0	0	0	311	
13	0	0	0	0	272	11	0	0	0	0	353	
14	0	0	0	0	332	12	0	0	0	0	355	
15	0	0	0	0	336	13	0	0	0	0	344	
0	0	0	0	0	336	14	0	0	0	0	302	
1	0	0	0	0	295	15	0	0	0	0	294	
2	0	0	0	0	257	0	0	0	0	0	355	
3	0	0	0	0	335	1	0	0	0	0	335	
4	0	0	0	0	281	2	0	0	0	0	313	
5	0	0	0	0	265	3	0	0	0	0	332	
6	0	0	0	0	275	4	0	0	0	0	348	
7	0	0	0	0	327	5	0	0	0	0	302	
8	0	0	0	0	333	6	0	0	0	0	323	
9	0	0	0	0	331	7	0	0	0	0	354	
10	0	0	0	0	288	8	0	0	0	0	341	
11	0	0	0	0	325	9	0	0	0	0	309	
12	0	0	0	0	332	10	0	0	0	0	312	
13	0	0	0	0	267	11	0	0	0	0	354	
14	0	0	0	0	323	12	0	0	0	0	339	
15	0	0	0	0	251	13	0	0	0	0	334	
0	0	0	0	0	306	14	0	0	0	0	349	
1	0	0	0	0	330	15	0	0	0	0	333	
2	0	0	0	0	324	0	0	0	0	0	318	
3	0	0	0	0	326	1	0	0	0	0	321	
4	0	0	0	0	252	2	0	0	0	0	323	
5	0	0	0	0	249	3	0	0	0	0	335	
6	0	0	0	0	328	4	0	0	0	0	339	
7	0	0	0	0	248	5	0	0	0	0	354	
8	0	0	0	0	297	6	0	0	0	0	328	
9	0	0	0	0	327	7	0	0	0	0	335	
10	0	0	0	0	327	8	0	0	0	0	342	
11	0	0	0	0	247	9	0	0	0	0	335	
12	0	0	0	0	259	10	0	0	0	0	312	
13	0	0	0	0	314	11	0	0	0	0	344	
14	0	0	0	0	254	12	0	0	0	0	354	
15	0	0	0	0	325	13	0	0	0	0	338	
0	0	0	0	0	311	14	0	0	0	0	340	
1	0	0	0	0	291	15	0	0	0	0	354	
2	0	0	0	0	321	0	0	0	0	0	312	
3	0	0	0	0	323	1	0	0	0	0	313	
4	0	0	0	0	324	2	0	0	0	0	293	
5	0	0	0	0	262	3	0	0	0	0	355	
6	0	0	0	0	317	4	0	0	0	0	318	
7	0	0	0	0	243	5	0	0	0	0	302	
8	0	0	0	0	319	6	0	0	0	0	295	
9	0	0	0	0	291	7	0	0	0	0	292	
10	0	0	0	0	316	8	0	0	0	0	304	
11	0	0	0	0	244	9	0	0	0	0	295	
12	0	0	0	0	291	10	0	0	0	0	295	
13	0	0	0	0	242	11	0	0	0	0	292	
14	0	0	0	0	321	12	0	0	0	0	354	
15	0	0	0	0	321	13	0	0	0	0	299	
0	0	0	0	0	319	14	0	0	0	0	295	
1	0	0	0	0	284	15	0	0	0	0	294	
2	0	0	0	0	241	0	0	0	0	0	293	
3	0	0	0	0	320	1	0	0	0	0	345	
4	0	0	0	0	312	2	0	0	0	0	322	
5	0	0	0	0	239	3	0	0	0	0	310	
6	0	0	0	0	297	4	0	0	0	0	343	
7	0	0	0	0	241	5	0	0	0	0	292	
8	0	0	0	0	316	6	0	0	0	0	351	
9	0	0	0	0	291	7	0	0	0	0	345	
10	0	0	0	0	295	8	0	0	0	0	353	
11	0	0	0	0	253	9	0	0	0	0	350	
12	0	0	0	0	285	10	0	0	0	0	353	
13	0	0	0	0	275	11	0	0	0	0	343	
14	0	0	0	0	270	12	0	0	0	0	310	
15	0	0	0	0	295	13	0	0	0	0	310	
0	0	0	0	0	302	14	0	0	0	0	314	
1	0	0	0	0	236	15	0	0	0	0	343	
2	0	0	0	0	289	0	0	0	0	0	342	
3	0	0	0	0	299	1	0	0	0	0	337	
4	0	0	0	0	235	2	0	0	0	0	340	
5	0	0	0	0	311	3	0	0	0	0	326	
6	0	0	0	0	273	4	0	0	0	0	327	
7	0	0	0	0	234	5	0	0	0	0	352	
8	0	0	0	0	313	6	0	0	0	0	348	
9	0	0	0	0	312	7	0	0	0	0	319	
10	0	0	0	0	298	8	0	0	0	0	291	
11	0	0	0	0	297	9	0	0	0	0	352	
12	0	0	0	0	240	10	0	0	0	0	328	
13	0	0	0	0	308	11	0	0	0	0	291	
14	0	0	0	0	301	12	0	0	0	0	351	
15	0	0	0	0	309	13	0	0	0	0	338	
0	0	0	0	0	232	14	0	0	0	0	344	
1	0	0	0	0	311	15	0	0	0	0	339	
2	0	0	0	0	309	0	0	0	0	0	336	
3	0	0	0	0	256	1	0	0	0	0	341	
4	0	0	0	0	273	2	0	0	0	0	313	
5	0	0	0	0	309	3	0	0	0	0	313	
6	0	0	0	0	236	4	0	0	0	0	339	
7	0	0	0	0	289	5	0	0	0	0	292	
8	0	0	0	0	307	6	0	0	0	0	351	
9	0	0	0	0	265	7	0	0	0	0	308	
10	0	0	0	0	234	8	0	0	0	0	292	
11	0	0	0	0	293	9	0	0	0	0	341	
12	0	0	0	0	267	10	0	0	0	0	334	
13	0	0	0	0	253	11	0	0	0	0	349	
14	0	0	0	0	275	12	0	0	0	0	339	
15	0	0	0	0	307	13	0	0	0	0	324	
0	0	0	0	0	310	14	0	0	0	0	308	
1	0	0	0	0	232	15	0	0	0	0	291	
2	0	0	0	0	230	0	0	0	0	0	350	
3	0	0	0	0	236	1	0	0	0	0	312	
4	0	0	0	0	247	2	0	0	0	0	313	
5	0	0	0	0	260	3	0	0	0	0	337	
6	0	0	0	0	308	4	0	0	0	0	309	
7	0	0	0	0	308	5	0	0	0	0	311	
8	0	0	0	0	229	6	0	0	0	0	348	
9	0	0	0	0	274	7	0	0	0	0	334	
10	0	0	0	0	306	8	0	0	0	0	289	
11	0	0	0	0	228	9	0	0	0	0	308	
12	0	0	0	0	302	10	0	0	0	0	327	
13	0	0	0	0	287	11	0	0	0	0	319	
14	0	0	0	0	235	12	0	0	0	0	335	
15	0	0	0	0	275	13	0	0	0	0	339	
0	0	0	0	0	305	14	0	0	0	0	307	
1	0	0	0	0	304	15	0	0	0	0	338	
2	0	0	0	0	227	0	0	0	0	0	292	
3	0	0	0	0	302	1	0	0	0	0	348	
4	0	0	0	0	306	2	0	0	0	0	312	
5	0	0	0	0	292	3	0	0	0	0	325	
6	0	0	0	0	226	4	0	0	0	0	339	
7	0	0	0	0	225	5	0	0	0	0	290	
8	0	0	0	0	304	6	0	0	0	0	336	
9	0	0	0	0	287	7	0	0	0	0	337	
10	0	0	0	0	225	8	0	0	0	0	306	
11	0	0	0	0	303	9	0	0	0	0	306	
12	0	0	0	0	288	10	0	0	0	0	348	
13	0	0	0	0	224	11	0	0	0	0	307	
14	0	0	0	0	239	12	0	0	0	0	331	
15	0	0	0	0	290	13	0	0	0	0	348	
0	0	0	0	0	276	14	0	0	0	0	348	
1	0	0	0	0	284	15	0	0	0	0	349	
2	0	0	0	0	302	0	0	0	0	0	306	
3	0	0	0	0	225	1	0	0	0	0	287	
4	0	0	0	0	302	2	0	0	0	0	288	
5	0	0	0	0	222	3	0	0	0	0	346	
6	0	0	0	0	254	4	0	0	0	0	335	
7	0	0	0	0	300	5	0	0	0	0	337	
8	0	0	0	0	299	6	0	0	0	0	338	
9	0	0	0	0	250	7	0	0	0	0	287	
10	0	0	0	0	265	8	0	0	0	0	302	
11	0	0	0	0	299	9	0	0	0	0	289	
12	0	0	0	0	300	10	0	0	0	0	288	
13	0	0	0	0	220	11	0	0	0	0	287	
14	0	0	0	0	290	12	0	0	0	0	291	
15	0	0	0	0	293	13	0	0	0	0	347	
0	0	0	0	0	247	14	0	0	0	0	347	
1	0	0	0	0	297	15	0	0	0	0	305	
2	0	0	0	0	299	0	0	0	0	0	334	
3	0	0	0	0	276	1	0	0	0	0	336	
4	0	0	0	0	298	2	0	0	0	0	345	
5	0	0	0	0	220	3	0	0	0	0	294	
6	0	0	0	0	280	4	0	0	0	0	286	
7	0	0	0	0	282	5	0	0	0	0	336	
8	0	0	0	0	238	6	0	0	0	0	305	
9	0	0	0	0	295	7	0	0	0	0	332	
10	0	0	0	0	229	8	0	0	0	0	306	
11	0	0	0	0	234	9	0	0	0	0	336	
12	0	0	0	0	297	10	0	0	0	0	306	
13	0	0	0	0	263	11	0	0	0	0	304	
14	0	0	0	0	229	12	0	0	0	0	306	
15	0	0	0	0	296	13	0	0	0	0	329	
0	0	0	0	0	296	14	0	0	0	0	336	
1	0	0	0	0	244	15	0	0	0	0	287	
2	0	0	0	0	221	0	0	0	0	0	347	
3	0	0	0	0	296	1	0	0	0	0	305	
4	0	0	0	0	259	2	0	0	0	0	306	
5	0	0	0	0	231	3	0	0	0	0	337	
6	0	0	0	0	282	4	0	0	0	0	288	
7	0	0	0	0	217	5	0	0	0	0	306	
8	0	0	0	0	281	6	0	0	0	0	337	
9	0	0	0	0	239	7	0	0	0	0	324	
10	0	0	0	0	296	8	0	0	0	0	321	
11	0	0	0	0	292	9	0	0	0	0	307	
12	0	0	0	0	295	10	0	0	0	0	345	
13	0	0	0	0	245	11	0	0	0	0	321	
14	0	0	0	0	230	12	0	0	0	0	320	
15	0	0	0	0	258	13	0	0	0	0	346	
0	0	0	0	0	215	14	0	0	0	0	347	
1	0	0	0	0	277	15	0	0	0	0	329	
2	0	0	0	0	294	0	0	0	0	0	349	
3	0	0	0	0	291	1	0	0	0	0	339	
4	0	0	0	0	283	2	0	0	0	0	345	
5	0	0	0	0	260	3	0	0	0	0	319	
6	0	0	0	0	274	4	0	0	0	0	306	
7	0	0	0	0	233	5	0	0	0	0	351	
8	0	0	0	0	220	6	0	0	0	0	345	
9	0	0	0	0	256	7	0	0	0	0	307	
10	0	0	0	0	264	8	0	0	0	0	339	
11	0	0	0	0	257	9	0	0	0	0	338	
12	0	0	0	0	260	10	0	0	0	0	338	
13	0	0	0	0	281	11	0	0	0	0	348	
14	0	0	0	0	287	12	0	0	0	0	344	
15	0	0	0	0	212	13	0	0	0	0	344	
0	0	0	0	0	263	14	0	0	0	0	307	
1	0	0	0	0	213	15	0	0	0	0	306	
2	0	0	0	0	229	0	0	0	0	0	339	
3	0	0	0	0	295	1	0	0	0	0	291	
4	0	0	0	0	245	2	0	0	0	0	348	
5	0	0	0	0	246	3	0	0	0	0	329	
6	0	0	0	0	290	4	0	0	0	0	311	
7	0	0	0	0	302	5	0	0	0	0	339	
8	0	0	0	0	253	6	0	0	0	0	338	
9	0	0	0	0	296	7	0	0	0	0	308	
10	0	0	0	0	244	8	0	0	0	0	338	
11	0	0	0	0	307	9	0	0	0	0	338	
12	0	0	0	0	231	10	0	0	0	0	307	
13	0	0	0	0	305	11	0	0	0	0	338	
14	0	0	0	0	268	12	0	0	0	0	296	
15	0	0	0	0	279	13	0	0	0	0	290	
0	0	0	0	0	257	14	0	0	0	0	314	
1	0	0	0	0	314	15	0	0	0	0	328	
2	0	0	0	0	296	0	0	0	0	0	338	
3	0	0	0	0	263	1	0	0	0	0	318	
4	0	0	0	0	236	2	0	0	0	0	286	
5	0	0	0	0	248	3	0	0	0	0	306	
6	0	0	0	0	315	4	0	0	0	0	290	
7	0	0	0	0	315	5	0	0	0	0	316	
8	0	0	0	0	289	6	0	0	0	0	294	
9	0	0	0	0	316	7	0	0	0	0	288	
10	0	0	0	0	295	8	0	0	0	0	347	
11	0	0	0	0	314	9	0	0	0	0	316	
12	0	0	0	0	237	10	0	0	0	0	319	
13	0	0	0	0	316	11	0	0	0	0	339	
14	0	0	0	0	316	12	0	0	0	0	337	
15	0	0	0	0	316	13	0	0	0	0	338	
0	0	0	0	0	314	14	0	0	0	0	334	
1	0	0	0	0	291	15	0	0	0	0	297	
2	0	0	0	0	238	0	0	0	0	0	340	
3	0	0	0	0	241	1	0	0	0	0	337	
4	0	0	0	0	318	2	0	0	0	0	338	
5	0	0	0	0	267	3	0	0	0	0	299	
6	0	0	0	0	245	4	0	0	0	0	295	
7	0	0	0	0	251	5	0	0	0	0	349	
8	0	0	0	0	331	6	0	0	0	0	307	
9	0	0	0	0	255	7	0	0	0	0	306	
10	0	0	0	0	336	8	0	0	0	0	338	
11	0	0	0	0	263	9	0	0	0	0	305	
12	0	0	0	0	263	10	0	0	0	0	323	
13	0	0	0	0	340	11	0	0	0	0	335	
14	0	0	0	0	305	12	0	0	0	0	349	
15	0	0	0	0	347	13	0	0	0	0	306	
0	0	0	0	0	351	14	0	0	0	0	310	
1	0	0	0	0	292	15	0	0	0	0	342	
2	0	0	0	0	351	0	0	0	0	0	323	
3	0	0	0	0	306	1	0	0	0	0	324	
4	0	0	0	0	281	2	0	0	0	0	338	
5	0	0	0	0	356	3	0	0	0	0	291	
6	0	0	0	0	356	4	0	0	0	0	344	
7	0	0	0	0	318	5	0	0	0	0	311	
8	0	0	0	0	318	6	0	0	0	0	338	
9	0	0	0	0	338	7	0	0	0	0	339	
10	0	0	0	0	355	8	0	0	0	0	287	
11	0	0	0	0	349	9	0	0	0	0	347	
12	0	0	0	0	316	10	0	0	0	0	348	
13	0	0	0	0	339	11	0	0	0	0	309	
14	0	0	0	0	354	12	0	0	0	0	334	
15	0	0	0	0	353	13	0	0	0	0	308	
0	0	0	0	0	343	14	0	0	0	0	338	
1	0	0	0	0	277	15	0	0	0	0	347	
2	0	0	0	0	305	0	0	0	0	0	305	
3	0	0	0	0	350	1	0	0	0	0	318	
4	0	0	0	0	340	2	0	0	0	0	294	
5	0	0	0	0	350	3	0	0	0	0	347	
6	0	0	0	0	273	4	0	0	0	0	345	
7	0	0	0	0	352	5	0	0	0	0	347	
8	0	0	0	0	352	6	0	0	0	0	347	
9	0	0	0	0	351	7	0	0	0	0	336	
10	0	0	0	0	346	8	0	0	0	0	347	
11	0	0	0	0	327	9	0	0	0	0	335	
12	0	0	0	0	347	10	0	0	0	0	337	
13	0	0	0	0	274	11	0	0	0	0	289	
14	0	0	0	0	339	12	0	0	0	0	345	
15	0	0	0	0	349	13	0	0	0	0	347	
0	0	0	0	0	276	14	0	0	0	0	319	
1	0	0	0	0	292	15	0	0	0	0	337	
2	0	0	0	0	270	0	0	0	0	0	322	
3	0	0	0	0	306	1	0	0	0	0	337	
4	0	0	0	0	348	2	0	0	0	0	324	
5	0	0	0	0	285	3	0	0	0	0	347	
6	0	0	0	0	348	4	0	0	0	0	345	
7	0	0	0	0	296	5	0	0	0	0	346	
8	0	0	0	0	348	6	0	0	0	0	321	
9	0	0	0	0	313	7	0	0	0	0	304	
10	0	0	0	0	306	8	0	0	0	0	326	
11	0	0	0	0	305	9	0	0	0	0	304	
12	0	0	0	0	287	10	0	0	0	0	304	
13	0	0	0	0	267	11	0	0	0	0	323	
14	0	0	0	0	297	12	0	0	0	0	339	
15	0	0	0	0	345	13	0	0	0	0	305	
0	0	0	0	0	324	14	0	0	0	0	305	
1	0	0	0	0	284	15	0	0	0	0	336	
2	0	0	0	0	344	0	0	0	0	0	305	
3	0	0	0	0	335	1	0	0	0	0	290	
4	0	0	0	0	332	2	0	0	0	0	319	
5	0	0	0	0	341	3	0	0	0	0	335	
6	0	0	0	0	342	4	0	0	0	0	335	
7	0	0	0	0	341	5	0	0	0	0	335	
8	0	0	0	0	328	6	0	0	0	0	298	
9	0	0	0	0	263	7	0	0	0	0	346	
10	0	0	0	0	271	8	0	0	0	0	341	
11	0	0	0	0	329	9	0	0	0	0	344	
12	0	0	0	0	337	10	0	0	0	0	304	
13	0	0	0	0	262	11	0	0	0	0	335	
14	0	0	0	0	283	12	0	0	0	0	285	
15	0	0	0	0	337	13	0	0	0	0	334	
0	0	0	0	0	325	14	0	0	0	0	339	
1	0	0	0	0	268	15	0	0	0	0	284	
2	0	0	0	0	267	0	0	0	0	0	286	
3	0	0	0	0	343	1	0	0	0	0	318	
4	0	0	0	0	311	2	0	0	0	0	305	
5	0	0	0	0	331	3	0	0	0	0	302	
6	0	0	0	0	339	4	0	0	0	0	344	
7	0	0	0	0	334	5	0	0	0	0	287	
8	0	0	0	0	268	6	0	0	0	0	317	
9	0	0	0	0	295	7	0	0	0	0	314	
10	0	0	0	0	332	8	0	0	0	0	303	
11	0	0	0	0	319	9	0	0	0	0	332	
12	0	0	0	0	341	10	0	0	0	0	301	
13	0	0	0	0	345	11	0	0	0	0	327	
14	0	0	0	0	335	12	0	0	0	0	340	
15	0	0	0	0	294	13	0	0	0	0	285	
0	0	0	0	0	272	14	0	0	0	0	285	
1	0	0	0	0	343	15	0	0	0	0	318	
2	0	0	0	0	318	0	0	0	0	0	309	
3	0	0	0	0	345	1	0	0	0	0	341	
4	0	0	0	0	304	2	0	0	0	0	303	
5	0	0	0	0	347	3	0	0	0	0	332	
6	0	0	0	0	348	4	0	0	0	0	300	
7	0	0	0	0	348	5	0	0	0	0	283	
8	0	0	0	0	349	6	0	0	0	0	335	
9	0	0	0	0	345	7	0	0	0	0	303	
10	0	0	0	0	291	8	0	0	0	0	332	
11	0	0	0	0	273	9	0	0	0	0	329	
12	0	0	0	0	353	10	0	0	0	0	336	
13	0	0	0	0	312	11	0	0	0	0	281	
14	0	0	0	0	292	12	0	0	0	0	281	
15	0	0	0	0	335	13	0	0	0	0	283	
0	0	0	0	0	357	14	0	0	0	0	299	
1	0	0	0	0	280	15	0	0	0	0	320	
2	0	0	0	0	348	0	0	0	0	0	280	
3	0	0	0	0	361	1	0	0	0	0	281	
4	0	0	0	0	363	2	0	0	0	0	331	
5	0	0	0	0	363	3	0	0	0	0	297	
6	0	0	0	0	356	4	0	0	0	0	284	
7	0	0	0	0	286	5	0	0	0	0	338	
8	0	0	0	0	291	6	0	0	0	0	339	
9	0	0	0	0	366	7	0	0	0	0	299	
10	0	0	0	0	366	8	0	0	0	0	299	
11	0	0	0	0	366	9	0	0	0	0	340	
12	0	0	0	0	337	10	0	0	0	0	335	
13	0	0	0	0	290	11	0	0	0	0	329	
14	0	0	0	0	366	12	0	0	0	0	285	
15	0	0	0	0	287	13	0	0	0	0	280	
0	0	0	0	0	366	14	0	0	0	0	288	
1	0	0	0	0	287	15	0	0	0	0	297	
2	0	0	0	0	366	0	0	0	0	0	291	
3	0	0	0	0	358	1	0	0	0	0	279	
4	0	0	0	0	367	2	0	0	0	0	302	
5	0	0	0	0	334	3	0	0	0	0	281	
6	0	0	0	0	326	4	0	0	0	0	317	
7	0	0	0	0	290	5	0	0	0	0	295	
8	0	0	0	0	312	6	0	0	0	0	324	
9	0	0	0	0	335	7	0	0	0	0	297	
10	0	0	0	0	306	8	0	0	0	0	339	
11	0	0	0	0	337	9	0	0	0	0	298	
12	0	0	0	0	305	10	0	0	0	0	289	
13	0	0	0	0	364	11	0	0	0	0	294	
14	0	0	0	0	318	12	0	0	0	0	335	
15	0	0	0	0	363	13	0	0	0	0	295	
0	0	0	0	0	336	14	0	0	0	0	337	
1	0	0	0	0	325	15	0	0	0	0	332	
2	0	0	0	0	355	0	0	0	0	0	295	
3	0	0	0	0	281	1	0	0	0	0	336	
4	0	0	0	0	339	2	0	0	0	0	303	
5	0	0	0	0	288	3	0	0	0	0	329	
6	0	0	0	0	341	4	0	0	0	0	338	
7	0	0	0	0	358	5	0	0	0	0	336	
8	0	0	0	0	279	6	0	0	0	0	299	
9	0	0	0	0	356	7	0	0	0	0	327	
10	0	0	0	0	339	8	0	0	0	0	326	
11	0	0	0	0	352	9	0	0	0	0	327	
12	0	0	0	0	355	10	0	0	0	0	326	
13	0	0	0	0	289	11	0	0	0	0	326	
14	0	0	0	0	361	12	0	0	0	0	294	
15	0	0	0	0	308	13	0	0	0	0	336	
0	0	0	0	0	286	14	0	0	0	0	282	
1	0	0	0	0	344	15	0	0	0	0	295	
2	0	0	0	0	370	0	0	0	0	0	320	
3	0	0	0	0	326	1	0	0	0	0	294	
4	0	0	0	0	337	2	0	0	0	0	314	
5	0	0	0	0	297	3	0	0	0	0	325	
6	0	0	0	0	377	4	0	0	0	0	284	
7	0	0	0	0	355	5	0	0	0	0	325	
8	0	0	0	0	342	6	0	0	0	0	319	
9	0	0	0	0	331	7	0	0	0	0	292	
10	0	0	0	0	339	8	0	0	0	0	294	
11	0	0	0	0	377	9	0	0	0	0	293	
12	0	0	0	0	354	10	0	0	0	0	324	
13	0	0	0	0	321	11	0	0	0	0	293	
14	0	0	0	0	369	12	0	0	0	0	315	
15	0	0	0	0	371	13	0	0	0	0	334	
0	0	0	0	0	367	14	0	0	0	0	296	
1	0	0	0	0	324	15	0	0	0	0	308	
2	0	0	0	0	361	0	0	0	0	0	334	
3	0	0	0	0	369	1	0	0	0	0	291	
4	0	0	0	0	369	2	0	0	0	0	321	
5	0	0	0	0	358	3	0	0	0	0	305	
6	0	0	0	0	291	4	0	0	0	0	276	
7	0	0	0	0	366	5	0	0	0	0	324	
8	0	0	0	0	287	6	0	0	0	0	300	
9	0	0	0	0	336	7	0	0	0	0	321	
10	0	0	0	0	365	8	0	0	0	0	323	
11	0	0	0	0	354	9	0	0	0	0	333	
12	0	0	0	0	299	10	0	0	0	0	310	
13	0	0	0	0	356	11	0	0	0	0	292	
14	0	0	0	0	352	12	0	0	0	0	321	
15	0	0	0	0	361	13	0	0	0	0	271	
0	0	0	0	0	358	14	0	0	0	0	331	
1	0	0	0	0	361	15	0	0	0	0	289	
2	0	0	0	0	316	0	0	0	0	0	312	
3	0	0	0	0	303	1	0	0	0	0	331	
4	0	0	0	0	316	2	0	0	0	0	289	
5	0	0	0	0	352	3	0	0	0	0	321	
6	0	0	0	0	316	4	0	0	0	0	332	
7	0	0	0	0	355	5	0	0	0	0	312	
8	0	0	0	0	355	6	0	0	0	0	329	
9	0	0	0	0	333	7	0	0	0	0	292	
10	0	0	0	0	287	8	0	0	0	0	293	
11	0	0	0	0	284	9	0	0	0	0	319	
12	0	0	0	0	361	10	0	0	0	0	295	
13	0	0	0	0	349	11	0	0	0	0	316	
14	0	0	0	0	333	12	0	0	0	0	288	
15	0	0	0	0	363	13	0	0	0	0	332	
0	0	0	0	0	367	14	0	0	0	0	298	
1	0	0	0	0	360	15	0	0	0	0	320	
2	0	0	0	0	370	0	0	0	0	0	306	
3	0	0	0	0	370	1	0	0	0	0	307	
4	0	0	0	0	366	2	0	0	0	0	268	
5	0	0	0	0	310	3	0	0	0	0	309	
6	0	0	0	0	297	4	0	0	0	0	319	
7	0	0	0	0	377	5	0	0	0	0	302	
8	0	0	0	0	304	6	0	0	0	0	287	
9	0	0	0	0	337	7	0	0	0	0	273	
10	0	0	0	0	379	8	0	0	0	0	326	
11	0	0	0	0	379	9	0	0	0	0	312	
12	0	0	0	0	313	10	0	0	0	0	270	
13	0	0	0	0	377	11	0	0	0	0	295	
14	0	0	0	0	307	12	0	0	0	0	327	
15	0	0	0	0	339	13	0	0	0	0	328	
0	0	0	0	0	316	14	0	0	0	0	319	
1	0	0	0	0	375	15	0	0	0	0	324	
2	0	0	0	0	343	0	0	0	0	0	327	
3	0	0	0	0	365	1	0	0	0	0	287	
4	0	0	0	0	370	2	0	0	0	0	326	
5	0	0	0	0	336	3	0	0	0	0	306	
6	0	0	0	0	366	4	0	0	0	0	270	
7	0	0	0	0	374	5	0	0	0	0	270	
8	0	0	0	0	376	6	0	0	0	0	285	
9	0	0	0	0	300	7	0	0	0	0	313	
10	0	0	0	0	374	8	0	0	0	0	267	
11	0	0	0	0	389	9	0	0	0	0	287	
12	0	0	0	0	330	10	0	0	0	0	273	
13	0	0	0	0	392	11	0	0	0	0	328	
14	0	0	0	0	396	12	0	0	0	0	319	
15	0	0	0	0	381	13	0	0	0	0	312	
0	0	0	0	0	403	14	0	0	0	0	318	
1	0	0	0	0	417	15	0	0	0	0	318	
2	0	0	0	0	419	0	0	0	0	0	327	
3	0	0	0	0	417	1	0	0	0	0	292	
4	0	0	0	0	345	2	0	0	0	0	317	
5	0	0	0	0	359	3	0	0	0	0	279	
6	0	0	0	0	407	4	0	0	0	0	325	
7	0	0	0	0	383	5	0	0	0	0	309	
8	0	0	0	0	407	6	0	0	0	0	285	
9	0	0	0	0	429	7	0	0	0	0	316	
10	0	0	0	0	430	8	0	0	0	0	291	
11	0	0	0	0	428	9	0	0	0	0	286	
12	0	0	0	0	429	10	0	0	0	0	295	
13	0	0	0	0	427	11	0	0	0	0	284	
14	0	0	0	0	421	12	0	0	0	0	292	
15	0	0	0	0	355	13	0	0	0	0	298	
0	0	0	0	0	429	14	0	0	0	0	315	
1	0	0	0	0	427	15	0	0	0	0	315	
2	0	0	0	0	349	0	0	0	0	0	305	
3	0	0	0	0	370	1	0	0	0	0	316	
4	0	0	0	0	424	2	0	0	0	0	313	
5	0	0	0	0	426	3	0	0	0	0	264	
6	0	0	0	0	413	4	0	0	0	0	290	
7	0	0	0	0	426	5	0	0	0	0	323	
8	0	0	0	0	424	6	0	0	0	0	303	
9	0	0	0	0	403	7	0	0	0	0	279	
10	0	0	0	0	348	8	0	0	0	0	312	
11	0	0	0	0	349	9	0	0	0	0	264	
12	0	0	0	0	350	10	0	0	0	0	281	
13	0	0	0	0	425	11	0	0	0	0	284	
14	0	0	0	0	351	12	0	0	0	0	280	
15	0	0	0	0	351	13	0	0	0	0	295	
0	0	0	0	0	408	14	0	0	0	0	324	
1	0	0	0	0	431	15	0	0	0	0	312	
2	0	0	0	0	417	0	0	0	0	0	282	
3	0	0	0	0	428	1	0	0	0	0	323	
4	0	0	0	0	409	2	0	0	0	0	289	
5	0	0	0	0	351	3	0	0	0	0	283	
6	0	0	0	0	429	4	0	0	0	0	280	
7	0	0	0	0	426	5	0	0	0	0	280	
8	0	0	0	0	380	6	0	0	0	0	282	
9	0	0	0	0	385	7	0	0	0	0	280	
10	0	0	0	0	419	8	0	0	0	0	280	
11	0	0	0	0	355	9	0	0	0	0	321	
12	0	0	0	0	424	10	0	0	0	0	280	
13	0	0	0	0	420	11	0	0	0	0	280	
14	0	0	0	0	361	12	0	0	0	0	260	
15	0	0	0	0	439	13	0	0	0	0	280	
0	0	0	0	0	367	14	0	0	0	0	288	
1	0	0	0	0	425	15	0	0	0	0	287	
2	0	0	0	0	451	0	0	0	0	0	312	
3	0	0	0	0	441	1	0	0	0	0	311	
4	0	0	0	0	454	2	0	0	0	0	279	
5	0	0	0	0	452	3	0	0	0	0	311	
6	0	0	0	0	408	4	0	0	0	0	310	
7	0	0	0	0	455	5	0	0	0	0	319	
8	0	0	0	0	456	6	0	0	0	0	322	
9	0	0	0	0	428	7	0	0	0	0	262	
10	0	0	0	0	467	8	0	0	0	0	263	
11	0	0	0	0	394	9	0	0	0	0	302	
12	0	0	0	0	402	10	0	0	0	0	279	
13	0	0	0	0	407	11	0	0	0	0	263	
14	0	0	0	0	481	12	0	0	0	0	277	
15	0	0	0	0	418	13	0	0	0	0	301	
0	0	0	0	0	487	14	0	0	0	0	300	
1	0	0	0	0	501	15	0	0	0	0	319	
2	0	0	0	0	459	0	0	0	0	0	278	
3	0	0	0	0	510	1	0	0	0	0	321	
4	0	0	0	0	515	2	0	0	0	0	296	
5	0	0	0	0	439	3	0	0	0	0	320	
6	0	0	0	0	506	4	0	0	0	0	317	
7	0	0	0	0	502	5	0	0	0	0	319	
8	0	0	0	0	522	6	0	0	0	0	267	
9	0	0	0	0	513	7	0	0	0	0	305	
10	0	0	0	0	464	8	0	0	0	0	256	
11	0	0	0	0	528	9	0	0	0	0	315	
12	0	0	0	0	464	10	0	0	0	0	291	
13	0	0	0	0	526	11	0	0	0	0	264	
14	0	0	0	0	513	12	0	0	0	0	265	
15	0	0	0	0	452	13	0	0	0	0	309	
0	0	0	0	0	499	14	0	0	0	0	309	
1	0	0	0	0	529	15	0	0	0	0	310	
2	0	0	0	0	464	0	0	0	0	0	262	
3	0	0	0	0	526	1	0	0	0	0	290	
4	0	0	0	0	452	2	0	0	0	0	286	
5	0	0	0	0	497	3	0	0	0	0	265	
6	0	0	0	0	484	4	0	0	0	0	308	
7	0	0	0	0	474	5	0	0	0	0	304	
8	0	0	0	0	449	6	0	0	0	0	310	
9	0	0	0	0	446	7	0	0	0	0	268	
10	0	0	0	0	487	8	0	0	0	0	317	
11	0	0	0	0	523	9	0	0	0	0	276	
12	0	0	0	0	444	10	0	0	0	0	316	
13	0	0	0	0	466	11	0	0	0	0	275	
14	0	0	0	0	499	12	0	0	0	0	306	
15	0	0	0	0	519	13	0	0	0	0	260	
0	0	0	0	0	518	14	0	0	0	0	318	
1	0	0	0	0	516	15	0	0	0	0	279	
2	0	0	0	0	437	0	0	0	0	0	309	
3	0	0	0	0	513	1	0	0	0	0	258	
4	0	0	0	0	436	2	0	0	0	0	284	
5	0	0	0	0	479	3	0	0	0	0	266	
6	0	0	0	0	509	4	0	0	0	0	309	
7	0	0	0	0	514	5	0	0	0	0	311	
8	0	0	0	0	476	6	0	0	0	0	262	
9	0	0	0	0	512	7	0	0	0	0	265	
10	0	0	0	0	434	8	0	0	0	0	261	
11	0	0	0	0	485	9	0	0	0	0	322	
12	0	0	0	0	451	10	0	0	0	0	280	
13	0	0	0	0	435	11	0	0	0	0	284	
14	0	0	0	0	487	12	0	0	0	0	264	
15	0	0	0	0	510	13	0	0	0	0	321	
0	0	0	0	0	512	14	0	0	0	0	293	
1	0	0	0	0	497	15	0	0	0	0	300	
2	0	0	0	0	489	0	0	0	0	0	283	
3	0	0	0	0	507	1	0	0	0	0	312	
4	0	0	0	0	433	2	0	0	0	0	312	
5	0	0	0	0	481	3	0	0	0	0	306	
6	0	0	0	0	451	4	0	0	0	0	262	
7	0	0	0	0	508	5	0	0	0	0	287	
8	0	0	0	0	494	6	0	0	0	0	281	
9	0	0	0	0	480	7	0	0	0	0	314	
10	0	0	0	0	506	8	0	0	0	0	264	
11	0	0	0	0	426	9	0	0	0	0	316	
12	0	0	0	0	428	10	0	0	0	0	280	
13	0	0	0	0	437	11	0	0	0	0	297	
14	0	0	0	0	499	12	0	0	0	0	267	
15	0	0	0	0	451	13	0	0	0	0	323	
0	0	0	0	0	502	14	0	0	0	0	290	
1	0	0	0	0	422	15	0	0	0	0	285	
2	0	0	0	0	460	0	0	0	0	0	321	
3	0	0	0	0	497	1	0	0	0	0	283	
4	0	0	0	0	431	2	0	0	0	0	270	
5	0	0	0	0	474	3	0	0	0	0	318	
6	0	0	0	0	428	4	0	0	0	0	283	
7	0	0	0	0	480	5	0	0	0	0	283	
8	0	0	0	0	457	6	0	0	0	0	326	
9	0	0	0	0	413	7	0	0	0	0	320	
10	0	0	0	0	492	8	0	0	0	0	316	
11	0	0	0	0	412	9	0	0	0	0	315	
12	0	0	0	0	490	10	0	0	0	0	288	
13	0	0	0	0	489	11	0	0	0	0	284	
14	0	0	0	0	412	12	0	0	0	0	315	
15	0	0	0	0	422	13	0	0	0	0	303	
0	0	0	0	0	487	14	0	0	0	0	316	
1	0	0	0	0	408	15	0	0	0	0	312	
2	0	0	0	0	438	0	0	0	0	0	316	
3	0	0	0	0	481	1	0	0	0	0	283	
4	0	0	0	0	485	2	0	0	0	0	307	
5	0	0	0	0	419	3	0	0	0	0	283	
6	0	0	0	0	473	4	0	0	0	0	318	
7	0	0	0	0	473	5	0	0	0	0	305	
8	0	0	0	0	479	6	0	0	0	0	272	
9	0	0	0	0	472	7	0	0	0	0	285	
10	0	0	0	0	401	8	0	0	0	0	316	
11	0	0	0	0	403	9	0	0	0	0	327	
12	0	0	0	0	430	10	0	0	0	0	279	
13	0	0	0	0	456	11	0	0	0	0	316	
14	0	0	0	0	419	12	0	0	0	0	297	
15	0	0	0	0	446	13	0	0	0	0	289	
0	0	0	0	0	404	14	0	0	0	0	269	
1	0	0	0	0	474	15	0	0	0	0	328	
2	0	0	0	0	471	0	0	0	0	0	319	
3	0	0	0	0	395	1	0	0	0	0	284	
4	0	0	0	0	474	2	0	0	0	0	307	
5	0	0	0	0	398	3	0	0	0	0	319	
6	0	0	0	0	463	4	0	0	0	0	282	
7	0	0	0	0	435	5	0	0	0	0	312	
8	0	0	0	0	474	6	0	0	0	0	267	
9	0	0	0	0	426	7	0	0	0	0	319	
10	0	0	0	0	474	8	0	0	0	0	331	
11	0	0	0	0	395	9	0	0	0	0	319	
12	0	0	0	0	417	10	0	0	0	0	287	
13	0	0	0	0	472	11	0	0	0	0	320	
14	0	0	0	0	472	12	0	0	0	0	331	
15	0	0	0	0	471	13	0	0	0	0	287	
0	0	0	0	0	467	14	0	0	0	0	304	
1	0	0	0	0	469	15	0	0	0	0	309	
2	0	0	0	0	389	0	0	0	0	0	289	
3	0	0	0	0	392	1	0	0	0	0	304	
4	0	0	0	0	463	2	0	0	0	0	282	
5	0	0	0	0	432	3	0	0	0	0	288	
6	0	0	0	0	384	4	0	0	0	0	331	
7	0	0	0	0	393	5	0	0	0	0	321	
8	0	0	0	0	460	6	0	0	0	0	321	
9	0	0	0	0	457	7	0	0	0	0	331	
10	0	0	0	0	412	8	0	0	0	0	307	
11	0	0	0	0	456	9	0	0	0	0	289	
12	0	0	0	0	377	10	0	0	0	0	321	
13	0	0	0	0	416	11	0	0	0	0	314	
14	0	0	0	0	409	12	0	0	0	0	320	
15	0	0	0	0	384	13	0	0	0	0	294	
